2.10,2.13,2.19,2.28,2.44,2.62,2.80,3.04,3.36,3.69,3.97,4.24,4.53,4.80,5.02,5.21,5.40,5.57,5.71,5.79,5.86,5.92,5.98,6.02,6.06,6.08,6.14,6.18,6.22,6.27,6.32,6.35,6.38,6.45,6.49,6.53,6.57,6.64,6.70,6.73,6.78,6.83,6.88,6.92,6.94,6.98,7.01,7.03,7.05,7.06,7.07,7.08,7.06,7.04,7.03,6.99,6.94,6.88,6.83,6.77,6.69,6.60,6.53,6.45,6.36,6.27,6.19,6.11,6.03,5.94,5.88,5.81,5.75,5.68,5.62,5.61,5.54,5.49,5.45,5.42,5.38,5.34,5.31,5.30,5.29,5.26,5.23,5.23,5.22,5.20,5.19,5.18,5.19,5.17,5.15,5.14,5.17,5.16,5.15,5.15,5.15,5.14,5.14,5.14,5.15,5.14,5.14,5.13,5.15,5.15,5.15,5.14,5.16,5.15,5.15,5.14,5.14,5.15,5.15,5.14,5.13,5.14,5.14,5.11,5.12,5.12,5.12,5.09,5.09,5.09,5.10,5.08,5.08,5.08,5.08,5.06,5.05,5.06,5.07,5.05,5.03,5.03,5.04,5.03,5.01,5.01,5.02,5.01,5.01,5.00,5.00,5.02,5.01,4.98,5.00,5.00,5.00,4.99,5.00,5.01,5.02,5.01,5.03,5.03,5.02,5.02,5.04,5.04,5.04,5.02,5.02,5.01,4.99,4.98,4.96,4.96,4.96,4.94,4.93,4.93,4.93,4.93,4.93,5.02,5.27,5.80,5.94,5.58,5.39,5.32,5.25,5.21,5.13,4.97,4.71,4.39,4.05,3.69,3.32,3.05,2.99,2.74,2.61,2.47,2.35,2.26,2.20,2.15,2.10,2.08
2.06,2.05,2.06,2.07,2.08,2.13,2.22,2.37,2.53,2.71,2.97,3.31,3.65,3.96,4.27,4.37,4.82,5.04,5.24,5.43,5.59,5.70,5.76,5.83,5.90,5.94,5.97,6.04,6.08,6.12,6.16,6.22,6.26,6.31,6.33,6.38,6.45,6.49,6.51,6.56,6.58,6.68,6.71,6.75,6.81,6.85,6.89,6.91,6.96,6.99,7.01,7.01,7.03,7.04,7.05,7.01,6.99,6.97,6.92,6.86,6.80,6.75,6.67,6.57,6.50,6.47,6.33,6.25,6.15,6.09,6.01,5.93,5.84,5.78,5.72,5.65,5.58,5.53,5.50,5.44,5.38,5.36,5.33,5.30,5.25,5.24,5.23,5.21,5.18,5.17,5.17,5.15,5.14,5.12,5.12,5.12,5.11,5.09,5.11,5.11,5.09,5.08,5.09,5.09,5.08,5.08,5.09,5.09,5.10,5.08,5.09,5.11,5.10,5.09,5.09,5.10,5.10,5.08,5.09,5.11,5.09,5.08,5.08,5.08,5.09,5.08,5.07,5.07,5.07,5.08,5.05,5.05,5.06,5.05,5.04,5.03,5.04,5.04,5.02,5.01,5.00,5.01,5.00,4.99,4.99,4.99,4.98,4.96,4.98,4.98,4.98,4.96,4.97,4.97,4.96,4.95,4.95,4.97,4.96,4.94,4.94,4.96,4.96,4.94,4.94,4.94,4.94,4.93,4.92,4.93,4.94,4.93,4.92,4.94,4.94,4.93,4.93,4.94,4.95,4.96,4.96,4.98,4.98,4.97,4.96,4.95,5.00,5.18,5.62,5.85,5.81,5.33,5.25,5.16,5.08,4.93,4.73,4.49,4.20,3.89,3.62,3.38,3.17,2.92,2.64,2.45,2.33,2.23,2.13,2.08
2.05,2.05,2.03,2.02,2.03,2.04,2.08,2.14,2.28,2.44,2.65,2.89,3.19,3.50,3.82,4.13,4.41,4.68,4.92,5.14,5.34,5.51,5.63,5.70,5.75,5.81,5.87,5.91,5.94,5.98,6.00,6.05,6.09,6.11,6.16,6.20,6.23,6.26,6.32,6.35,6.38,6.42,6.47,6.52,6.55,6.58,6.62,6.67,6.69,6.71,6.74,6.77,6.79,6.80,6.80,6.81,6.82,6.79,6.77,6.75,6.71,6.66,6.60,6.56,6.50,6.41,6.33,6.26,6.18,6.09,6.00,5.93,5.85,5.77,5.69,5.63,5.58,5.52,5.45,5.41,5.41,5.35,5.30,5.27,5.26,5.24,5.20,5.18,5.18,5.17,5.15,5.14,5.14,5.14,5.14,5.12,5.11,5.13,5.12,5.10,5.10,5.12,5.12,5.12,5.12,5.13,5.13,5.11,5.12,5.13,5.13,5.12,5.10,5.12,5.12,5.12,5.11,5.12,5.13,5.11,5.10,5.10,5.12,5.11,5.08,5.08,5.09,5.08,5.07,5.07,5.07,5.07,5.06,5.05,5.06,5.05,5.05,5.03,5.04,5.04,5.02,5.01,5.02,5.02,5.01,5.00,5.00,5.00,5.01,4.98,4.99,4.99,4.99,4.98,4.97,4.97,4.98,4.98,4.97,4.99,4.97,4.96,4.96,4.97,4.97,4.96,4.95,4.95,4.97,4.97,4.95,4.96,4.96,4.96,4.95,4.95,4.96,4.96,4.94,4.94,4.94,4.96,4.96,4.95,4.98,4.98,5.05,5.33,5.82,5.81,5.48,5.36,5.33,5.28,5.24,5.13,4.98,4.73,4.40,4.07,3.71,3.33,3.01,2.74,2.55,2.51,2.30,2.17,2.10,2.08
2.07,2.04,2.03,2.05,2.05,2.04,2.05,2.09,2.14,2.22,2.35,2.53,2.76,3.04,3.36,3.69,4.00,4.32,4.60,4.86,4.94,5.31,5.51,5.65,5.75,5.81,5.85,5.90,5.95,5.99,6.02,6.06,6.09,6.13,6.16,6.18,6.23,6.25,6.28,6.29,6.33,6.38,6.41,6.43,6.47,6.48,6.55,6.57,6.62,6.67,6.72,6.74,6.77,6.81,6.84,6.86,6.89,6.91,6.93,6.93,6.92,6.92,6.91,6.87,6.83,6.77,6.73,6.66,6.57,6.49,6.46,6.32,6.22,6.14,6.06,5.98,5.89,5.81,5.75,5.69,5.61,5.54,5.51,5.47,5.43,5.39,5.35,5.35,5.32,5.28,5.27,5.27,5.25,5.24,5.24,5.24,5.24,5.22,5.22,5.23,5.21,5.22,5.22,5.22,5.23,5.22,5.21,5.22,5.23,5.23,5.21,5.22,5.22,5.22,5.20,5.20,5.21,5.22,5.20,5.19,5.19,5.19,5.17,5.18,5.17,5.17,5.15,5.14,5.14,5.15,5.14,5.12,5.13,5.13,5.12,5.10,5.10,5.10,5.08,5.08,5.07,5.08,5.07,5.06,5.05,5.06,5.06,5.05,5.03,5.03,5.04,5.03,5.02,5.03,5.03,5.02,5.00,5.01,5.02,5.00,5.00,5.01,5.01,5.01,4.99,4.99,5.00,5.00,4.99,4.98,4.98,4.99,4.97,4.98,4.99,4.99,4.97,4.97,4.98,4.99,4.97,4.96,4.98,4.99,5.00,5.03,5.20,5.73,5.90,5.53,5.36,5.30,5.22,5.09,4.91,4.84,4.39,4.06,3.75,3.51,3.27,3.02,2.74,2.54,2.39,2.27,2.17,2.13,2.11,2.07
2.06,2.07,2.07,2.08,2.08,2.12,2.18,2.28,2.43,2.66,2.73,3.28,3.64,4.01,4.36,4.66,4.93,5.17,5.42,5.63,5.76,5.83,5.91,5.96,5.98,6.02,6.07,6.10,6.11,6.13,6.15,6.19,6.20,6.22,6.25,6.27,6.34,6.37,6.41,6.46,6.49,6.51,6.55,6.60,6.63,6.66,6.69,6.73,6.76,6.78,6.80,6.83,6.86,6.86,6.88,6.87,6.89,6.87,6.85,6.82,6.81,6.74,6.67,6.61,6.55,6.48,6.39,6.31,6.23,6.14,6.04,5.95,5.88,5.81,5.74,5.66,5.61,5.57,5.50,5.45,5.41,5.38,5.35,5.32,5.29,5.28,5.28,5.25,5.25,5.25,5.24,5.22,5.22,5.22,5.23,5.22,5.20,5.21,5.23,5.20,5.21,5.21,5.22,5.21,5.20,5.20,5.21,5.21,5.20,5.20,5.20,5.18,5.18,5.18,5.19,5.17,5.17,5.15,5.17,5.17,5.15,5.13,5.13,5.12,5.12,5.10,5.11,5.11,5.10,5.08,5.08,5.08,5.07,5.06,5.05,5.05,5.05,5.03,5.04,5.04,5.04,5.02,5.02,5.02,5.02,5.01,5.00,5.02,5.01,4.99,4.99,4.99,5.00,4.99,4.99,4.98,5.00,4.99,4.98,4.98,4.98,4.99,4.98,4.97,4.98,4.98,4.96,4.96,4.97,4.97,4.97,4.96,4.97,4.97,4.97,4.95,4.96,4.97,4.97,4.97,5.03,5.27,5.77,5.90,5.55,5.46,5.30,5.21,5.09,4.92,4.69,4.41,4.08,3.80,3.57,3.33,3.07,2.79,2.58,2.43,2.31,2.22,2.16,2.12,2.08,2.08,2.08,2.07,2.06,2.09
2.10,2.18,2.28,2.46,2.69,2.98,3.30,3.64,3.98,4.28,4.55,4.81,5.06,5.29,5.49,5.63,5.72,5.79,5.85,5.88,5.93,5.98,6.02,6.04,6.07,6.09,6.16,6.19,6.22,6.26,6.29,6.32,6.35,6.41,6.44,6.48,6.50,6.55,6.59,6.61,6.63,6.67,6.69,6.70,6.72,6.74,6.77,6.78,6.78,6.80,6.82,6.84,6.81,6.78,6.77,6.72,6.66,6.60,6.56,6.48,6.40,6.32,6.26,6.18,6.09,6.00,5.91,5.85,5.77,5.69,5.63,5.58,5.51,5.46,5.41,5.41,5.34,5.31,5.29,5.28,5.26,5.23,5.21,5.21,5.21,5.19,5.19,5.20,5.21,5.20,5.18,5.19,5.21,5.20,5.19,5.18,5.20,5.19,5.19,5.19,5.20,5.20,5.20,5.19,5.20,5.19,5.18,5.17,5.19,5.19,5.17,5.16,5.16,5.16,5.15,5.15,5.15,5.16,5.14,5.11,5.12,5.13,5.11,5.09,5.09,5.10,5.10,5.08,5.07,5.08,5.07,5.05,5.05,5.05,5.06,5.05,5.04,5.04,5.05,5.04,5.03,5.03,5.03,5.02,5.00,5.01,5.01,5.02,5.01,5.00,5.00,5.01,5.00,5.00,5.01,5.00,5.00,4.98,5.00,5.00,4.99,4.98,4.98,4.99,4.98,4.97,4.98,4.98,4.99,4.98,4.99,5.03,5.08,5.33,5.83,5.97,5.55,5.39,5.36,5.32,5.27,5.15,5.00,4.73,4.38,4.00,3.60,3.26,3.00,2.76,2.60,2.46,2.31,2.21,2.15,2.12,2.12,2.09,2.08,2.08,2.08,2.11,2.13,2.21,2.35,2.53,2.75,3.03,3.40,3.76
4.07,4.38,4.69,4.93,5.13,5.34,5.55,5.70,5.78,5.84,5.90,5.95,5.99,6.02,6.07,6.09,6.14,6.17,6.20,6.25,6.28,6.30,6.34,6.40,6.43,6.47,6.51,6.56,6.61,6.66,6.68,6.74,6.78,6.81,6.84,6.89,6.94,6.97,6.99,7.00,7.01,7.01,6.98,6.95,6.93,6.88,6.82,6.74,6.68,6.58,6.49,6.40,6.33,6.24,6.17,6.08,6.00,5.92,5.83,5.75,5.67,5.62,5.57,5.51,5.46,5.46,5.40,5.36,5.33,5.32,5.31,5.28,5.25,5.26,5.26,5.24,5.23,5.24,5.24,5.23,5.22,5.23,5.24,5.24,5.21,5.22,5.23,5.22,5.23,5.23,5.23,5.23,5.23,5.22,5.24,5.23,5.22,5.21,5.23,5.22,5.20,5.19,5.20,5.20,5.19,5.18,5.18,5.18,5.16,5.15,5.15,5.16,5.14,5.13,5.13,5.13,5.12,5.11,5.09,5.11,5.10,5.10,5.09,5.09,5.10,5.07,5.06,5.07,5.08,5.06,5.05,5.05,5.06,5.06,5.05,5.05,5.06,5.05,5.04,5.04,5.03,5.04,5.03,5.02,5.03,5.04,5.03,5.02,5.03,5.03,5.02,5.02,5.02,5.02,5.01,5.01,5.02,5.02,5.02,5.02,5.04,5.10,5.27,5.76,6.02,6.00,5.47,5.39,5.31,5.23,5.09,4.86,4.58,4.29,3.98,3.69,3.42,3.21,2.94,2.65,2.46,2.34,2.25,2.15,2.11,2.11,2.11,2.10,2.09,2.10,2.10,2.15,2.20,2.33,2.52,2.76,3.06,3.42,3.81,4.17,4.48,4.76,5.06,5.31,5.52,5.67,5.78,5.84,5.90,5.94
6.00,6.04,6.08,6.10,6.14,6.16,6.21,6.24,6.28,6.33,6.37,6.39,6.43,6.47,6.51,6.55,6.59,6.63,6.68,6.71,6.75,6.80,6.84,6.87,6.89,6.92,6.95,6.95,6.95,6.94,6.93,6.91,6.87,6.83,6.80,6.73,6.67,6.59,6.52,6.43,6.32,6.22,6.15,6.05,5.96,5.88,5.80,5.74,5.66,5.59,5.55,5.50,5.45,5.39,5.36,5.37,5.31,5.28,5.27,5.27,5.25,5.23,5.23,5.23,5.22,5.21,5.20,5.20,5.21,5.21,5.20,5.21,5.24,5.25,5.24,5.25,5.27,5.26,5.24,5.24,5.25,5.25,5.24,5.24,5.25,5.24,5.21,5.18,5.17,5.16,5.14,5.12,5.11,5.11,5.09,5.09,5.11,5.12,5.11,5.09,5.09,5.10,5.08,5.08,5.07,5.09,5.07,5.05,5.04,5.05,5.05,5.04,5.03,5.03,5.04,5.02,5.01,5.00,5.00,5.00,5.00,5.00,5.01,4.99,4.99,4.99,5.01,4.99,4.97,4.97,4.97,4.99,4.98,4.97,4.99,4.99,4.98,4.97,4.99,4.99,4.98,4.97,4.98,4.98,4.97,4.96,4.97,4.98,4.97,4.96,4.97,4.99,4.98,4.97,4.98,5.00,5.01,5.09,5.48,5.92,5.78,5.48,5.39,5.34,5.28,5.21,5.11,4.97,4.74,4.42,4.07,3.73,3.38,3.04,2.82,2.66,2.55,2.48,2.39,2.28,2.25,2.16,2.14,2.10,2.10,2.09,2.08,2.08,2.11,2.14,2.18,2.26,2.40,2.58,2.78,3.01,3.29,3.60,3.89,4.15,4.42,4.69,4.92,5.12,5.31,5.37,5.64,5.73,5.80,5.87
5.93,5.97,6.00,6.06,6.10,6.15,6.18,6.24,6.28,6.33,6.36,6.43,6.47,6.51,6.55,6.62,6.66,6.71,6.74,6.79,6.81,6.87,6.91,6.95,6.99,7.01,7.03,7.05,7.08,7.10,7.09,7.08,7.09,7.07,7.03,6.98,6.95,6.91,6.82,6.76,6.70,6.64,6.56,6.46,6.39,6.37,6.24,6.15,6.07,6.02,5.92,5.85,5.78,5.73,5.68,5.62,5.56,5.53,5.49,5.45,5.40,5.38,5.35,5.33,5.30,5.28,5.27,5.24,5.21,5.20,5.21,5.19,5.17,5.16,5.17,5.15,5.15,5.13,5.15,5.15,5.14,5.13,5.14,5.14,5.13,5.12,5.13,5.14,5.13,5.12,5.14,5.15,5.13,5.11,5.13,5.13,5.14,5.12,5.12,5.12,5.12,5.11,5.10,5.12,5.12,5.10,5.09,5.09,5.09,5.09,5.08,5.07,5.08,5.07,5.05,5.05,5.06,5.05,5.04,5.04,5.05,5.04,5.02,5.01,5.03,5.03,5.01,5.00,5.02,5.02,5.00,4.99,5.01,5.01,5.01,5.01,5.04,5.04,5.04,5.03,5.03,5.04,5.04,5.02,5.03,5.03,5.02,4.99,4.98,4.97,4.95,4.94,4.93,4.93,4.93,4.91,4.91,4.94,4.95,4.94,4.93,4.95,4.96,4.98,5.06,5.39,5.84,5.74,5.44,5.35,5.33,5.29,5.22,5.14,5.01,4.79,4.51,4.19,3.92,3.60,3.33,3.15,3.03,2.92,2.77,2.58,2.42,2.33,2.28,2.20,2.16,2.13,2.10,2.09,2.09,2.09,2.12,2.18,2.29,2.44,2.62,2.83,3.11,3.45,3.79,4.09,4.41,4.69,4.95,5.17
5.36,5.53,5.65,5.74,5.80,5.86,5.93,5.97,6.00,6.05,6.07,6.14,6.17,6.21,6.27,6.30,6.34,6.39,6.44,6.48,6.52,6.56,6.62,6.67,6.70,6.75,6.80,6.85,6.87,6.91,6.95,6.99,7.01,7.00,7.03,7.04,7.03,6.99,6.98,6.97,6.92,6.85,6.80,6.75,6.69,6.60,6.52,6.45,6.37,6.28,6.19,6.11,6.04,5.95,5.89,5.82,5.76,5.68,5.60,5.56,5.54,5.47,5.41,5.35,5.35,5.32,5.28,5.25,5.23,5.22,5.19,5.17,5.16,5.15,5.14,5.11,5.12,5.12,5.10,5.09,5.10,5.10,5.09,5.08,5.09,5.09,5.10,5.08,5.08,5.10,5.10,5.10,5.08,5.10,5.11,5.09,5.09,5.09,5.10,5.10,5.08,5.09,5.10,5.10,5.09,5.09,5.10,5.08,5.08,5.08,5.07,5.07,5.05,5.04,5.05,5.04,5.03,5.02,5.03,5.03,5.01,5.00,5.02,5.01,5.00,4.98,4.98,4.99,4.97,4.97,4.97,4.99,4.97,4.95,4.96,4.96,4.96,4.93,4.94,4.95,4.96,4.94,4.93,4.93,4.94,4.92,4.92,4.93,4.93,4.92,4.92,4.92,4.92,4.92,4.90,4.91,4.93,4.92,4.89,4.90,4.91,4.91,4.90,4.90,4.92,4.95,5.04,5.40,5.82,5.73,5.42,5.31,5.26,5.22,5.16,5.06,4.89,4.59,4.23,3.87,3.48,3.12,2.82,2.58,2.45,2.42,2.19,2.09,2.04,2.03,2.01,1.99,1.99,2.00,2.00,2.00,2.02,2.07,2.17,2.30,2.51,2.77,3.12,3.48,3.78,4.11,4.45,4.72,4.95,5.19
5.26,5.57,5.66,5.74,5.80,5.84,5.87,5.91,5.96,6.00,6.01,6.04,6.09,6.12,6.13,6.17,6.22,6.26,6.29,6.32,6.37,6.41,6.45,6.49,6.53,6.55,6.62,6.64,6.68,6.73,6.76,6.79,6.82,6.85,6.87,6.88,6.87,6.89,6.89,6.86,6.82,6.81,6.77,6.72,6.64,6.57,6.51,6.41,6.33,6.24,6.21,6.05,5.95,5.88,5.81,5.73,5.64,5.59,5.54,5.48,5.41,5.37,5.34,5.31,5.26,5.23,5.22,5.20,5.17,5.15,5.15,5.14,5.14,5.12,5.12,5.12,5.14,5.12,5.11,5.13,5.12,5.11,5.12,5.12,5.12,5.11,5.11,5.11,5.12,5.12,5.10,5.11,5.12,5.11,5.09,5.11,5.10,5.10,5.08,5.08,5.09,5.08,5.06,5.05,5.06,5.06,5.04,5.04,5.05,5.04,5.01,5.00,5.01,5.01,4.99,4.98,4.99,4.99,4.98,4.95,4.96,4.97,4.96,4.94,4.95,4.96,4.95,4.93,4.94,4.93,4.94,4.93,4.92,4.93,4.93,4.91,4.90,4.92,4.92,4.91,4.90,4.90,4.92,4.90,4.88,4.89,4.91,4.90,4.89,4.88,4.88,4.89,4.88,4.88,4.89,4.88,4.88,4.88,4.89,4.89,4.88,4.88,4.92,4.97,5.20,5.70,5.80,5.46,5.29,5.22,5.18,5.12,5.02,4.82,4.54,4.45,3.84,3.45,3.11,2.85,2.64,2.47,2.36,2.23,2.13,2.06,2.03,2.02,2.00,1.99,1.99,2.00,2.01,2.02,2.04,2.12,2.23,2.39,2.56,2.84,2.94,3.50,3.81,4.15,4.46,4.74,4.97,5.19,5.40,5.58
5.70,5.77,5.84,5.88,5.91,5.94,5.98,6.02,6.04,6.05,6.08,6.11,6.13,6.13,6.19,6.21,6.28,6.31,6.34,6.39,6.41,6.44,6.48,6.53,6.57,6.59,6.63,6.67,6.71,6.73,6.75,6.78,6.80,6.81,6.81,6.82,6.83,6.80,6.77,6.75,6.74,6.66,6.59,6.54,6.47,6.40,6.30,6.22,6.14,6.05,5.95,5.86,5.79,5.72,5.65,5.57,5.52,5.46,5.40,5.34,5.33,5.30,5.25,5.21,5.19,5.19,5.16,5.13,5.12,5.14,5.13,5.11,5.11,5.11,5.11,5.10,5.10,5.11,5.11,5.10,5.10,5.10,5.11,5.11,5.10,5.10,5.12,5.11,5.09,5.09,5.10,5.10,5.08,5.08,5.09,5.08,5.07,5.08,5.08,5.07,5.05,5.05,5.05,5.05,5.03,5.02,5.03,5.03,5.01,4.98,5.00,5.00,4.98,4.97,4.97,4.97,4.96,4.95,4.95,4.95,4.95,4.93,4.94,4.94,4.94,4.93,4.92,4.92,4.93,4.92,4.91,4.92,4.93,4.91,4.90,4.92,4.93,4.91,4.90,4.91,4.92,4.91,4.90,4.91,4.91,4.90,4.88,4.90,4.90,4.91,4.89,4.89,4.91,4.91,4.93,4.96,5.11,5.62,5.96,5.64,5.37,5.31,5.25,5.20,5.14,5.11,4.76,4.41,4.05,3.69,3.31,3.00,2.76,2.60,2.46,2.30,2.15,2.10,2.07,2.02,2.00,2.02,2.00,2.00,2.00,2.03,2.09,2.17,2.30,2.51,2.57,3.05,3.37,3.72,4.04,4.36,4.66,4.93,5.16,5.36,5.52,5.64,5.74,5.80,5.84,5.89,5.94,5.98,6.00,6.03
6.09,6.11,6.14,6.17,6.20,6.21,6.28,6.31,6.37,6.42,6.47,6.50,6.55,6.61,6.66,6.68,6.73,6.80,6.84,6.85,6.88,6.92,6.93,6.93,6.92,6.92,6.92,6.89,6.85,6.82,6.81,6.74,6.68,6.64,6.57,6.48,6.39,6.30,6.22,6.14,6.03,5.95,5.88,5.80,5.72,5.64,5.57,5.53,5.45,5.40,5.36,5.32,5.28,5.23,5.22,5.21,5.18,5.15,5.15,5.14,5.13,5.12,5.12,5.13,5.13,5.10,5.11,5.11,5.12,5.11,5.11,5.12,5.13,5.12,5.11,5.13,5.12,5.12,5.11,5.12,5.12,5.12,5.11,5.11,5.11,5.12,5.10,5.09,5.09,5.09,5.07,5.06,5.06,5.05,5.06,5.04,5.05,5.04,5.02,5.00,5.00,5.02,5.00,4.99,4.99,5.00,4.99,4.98,4.97,4.98,4.98,4.96,4.95,4.96,4.96,4.94,4.93,4.96,4.95,4.94,4.93,4.94,4.94,4.93,4.91,4.93,4.93,4.92,4.90,4.92,4.92,4.92,4.91,4.90,4.91,4.90,4.90,4.89,4.90,4.91,4.90,4.89,4.91,4.91,4.90,4.89,4.92,4.94,4.99,5.30,5.83,5.84,5.47,5.28,5.20,5.18,5.01,4.82,4.61,4.37,4.06,3.76,3.54,3.36,3.17,2.87,2.60,2.44,2.31,2.19,2.09,2.06,2.04,2.02,1.99,2.01,2.01,2.02,2.01,2.08,2.10,2.31,2.49,2.75,3.06,3.38,3.72,4.08,4.37,4.65,4.89,5.11,5.34,5.51,5.62,5.69,5.76,5.81,5.85,5.89,5.95,5.99,6.00,6.04,6.08,6.09,6.14,6.16,6.20,6.24
6.27,6.29,6.34,6.38,6.42,6.45,6.49,6.55,6.58,6.60,6.64,6.68,6.72,6.75,6.77,6.80,6.84,6.86,6.85,6.86,6.87,6.86,6.83,6.81,6.78,6.73,6.65,6.60,6.54,6.48,6.38,6.30,6.23,6.15,6.05,5.95,5.90,5.82,5.73,5.65,5.59,5.55,5.48,5.41,5.36,5.35,5.28,5.22,5.20,5.18,5.15,5.11,5.09,5.10,5.11,5.11,5.10,5.10,5.11,5.09,5.08,5.09,5.10,5.09,5.08,5.09,5.09,5.09,5.08,5.10,5.11,5.10,5.09,5.09,5.10,5.10,5.09,5.07,5.08,5.08,5.07,5.06,5.06,5.06,5.05,5.02,5.04,5.03,5.02,5.00,5.00,5.01,5.00,4.98,4.98,4.99,4.99,4.97,4.96,4.98,4.96,4.95,4.95,4.96,4.96,4.95,4.94,4.96,4.96,4.94,4.94,4.94,4.95,4.95,4.93,4.95,4.95,4.95,4.92,4.93,4.94,4.93,4.92,4.92,4.93,4.94,4.93,4.92,4.93,4.92,4.91,4.91,4.92,4.92,4.91,4.90,4.91,4.92,4.92,4.91,4.93,4.99,5.22,5.73,5.88,5.82,5.34,5.28,5.22,5.18,5.06,4.86,4.59,4.25,3.88,3.47,3.09,2.84,2.66,2.50,2.40,2.30,2.19,2.11,2.06,2.04,2.03,2.02,2.00,2.01,2.02,2.04,2.05,2.13,2.25,2.41,2.61,2.87,3.20,3.54,3.83,4.16,4.49,4.76,4.99,5.18,5.38,5.55,5.67,5.73,5.81,5.85,5.90,5.93,5.98,6.00,6.07,6.09,6.13,6.18,6.21,6.24,6.27,6.33,6.37,6.41,6.45,6.51,6.56,6.59
6.63,6.68,6.73,6.76,6.80,6.85,6.88,6.91,6.93,6.96,6.97,6.98,6.97,6.96,6.95,6.91,6.85,6.81,6.75,6.69,6.61,6.52,6.46,6.38,6.28,6.18,6.11,6.03,5.94,5.85,5.80,5.74,5.67,5.60,5.56,5.55,5.47,5.41,5.36,5.32,5.29,5.25,5.21,5.19,5.16,5.12,5.10,5.09,5.09,5.09,5.09,5.11,5.10,5.09,5.08,5.08,5.09,5.08,5.07,5.08,5.09,5.09,5.08,5.08,5.10,5.11,5.09,5.08,5.09,5.09,5.09,5.08,5.08,5.09,5.07,5.06,5.06,5.08,5.06,5.05,5.04,5.05,5.05,5.02,5.02,5.03,5.02,5.00,4.99,5.01,5.00,5.00,4.98,5.00,4.99,4.97,4.97,4.98,4.97,4.96,4.96,4.97,4.97,4.96,4.95,4.95,4.97,4.96,4.94,4.95,4.95,4.95,4.93,4.94,4.94,4.94,4.93,4.94,4.94,4.94,4.93,4.91,4.93,4.93,4.93,4.92,4.94,4.94,4.93,4.92,4.94,4.94,4.96,5.01,5.30,5.44,5.91,5.54,5.38,5.34,5.27,5.19,5.09,4.92,4.67,4.31,3.95,3.59,3.26,2.98,2.76,2.62,2.51,2.37,2.24,2.15,2.12,2.09,2.06,2.05,2.04,2.04,2.04,2.05,2.08,2.14,2.23,2.39,2.58,2.79,3.05,3.36,3.70,4.01,4.30,4.59,4.87,5.09,5.28,5.45,5.61,5.71,5.76,5.80,5.85,5.87,5.95,5.97,6.00,6.05,6.08,6.10,6.12,6.17,6.21,6.24,6.27,6.32,6.36,6.40,6.43,6.49,6.53,6.55,6.58,6.63,6.69,6.72,6.76,6.81
6.83,6.88,6.88,6.91,6.94,6.93,6.92,6.91,6.89,6.86,6.80,6.74,6.70,6.63,6.54,6.45,6.38,6.30,6.22,6.11,6.05,5.97,5.89,5.80,5.75,5.73,5.65,5.59,5.54,5.51,5.47,5.43,5.39,5.39,5.33,5.29,5.26,5.25,5.23,5.20,5.17,5.16,5.16,5.13,5.11,5.11,5.12,5.13,5.12,5.13,5.13,5.13,5.12,5.13,5.13,5.15,5.13,5.13,5.14,5.14,5.13,5.13,5.14,5.15,5.15,5.13,5.14,5.14,5.12,5.12,5.12,5.12,5.12,5.09,5.10,5.10,5.10,5.08,5.08,5.09,5.09,5.06,5.06,5.07,5.06,5.05,5.03,5.04,5.04,5.03,5.02,5.02,5.04,5.03,5.00,5.02,5.02,5.01,4.99,5.02,5.02,5.01,4.99,5.00,5.01,5.01,4.99,4.99,5.00,5.00,4.99,4.97,5.00,5.00,4.98,4.98,4.98,4.99,4.99,4.98,4.98,4.99,4.98,4.96,4.97,4.97,4.98,4.96,4.97,4.98,4.98,4.97,4.96,4.98,4.99,5.00,5.04,5.30,5.79,5.95,5.61,5.43,5.39,5.33,5.28,5.24,5.13,4.96,4.72,4.43,4.33,3.80,3.47,3.17,2.97,2.79,2.63,2.53,2.44,2.32,2.22,2.16,2.15,2.12,2.09,2.08,2.08,2.08,2.09,2.09,2.13,2.19,2.26,2.37,2.55,2.61,2.97,3.25,3.57,3.88,4.17,4.46,4.74,4.99,5.20,5.37,5.54,5.70,5.79,5.85,5.91,5.96,6.01,6.04,6.06,6.11,6.15,6.17,6.20,6.24,6.26,6.32,6.34,6.38,6.42,6.46,6.48,6.52,6.58,6.62
6.66,6.69,6.74,6.80,6.81,6.86,6.91,6.95,6.97,7.00,7.05,7.05,7.07,7.06,7.07,7.07,7.05,7.03,7.00,6.98,6.94,6.88,6.83,6.78,6.72,6.63,6.55,6.48,6.40,6.30,6.21,6.14,6.07,5.98,5.89,5.83,5.76,5.69,5.63,5.60,5.59,5.50,5.45,5.41,5.40,5.37,5.32,5.30,5.29,5.28,5.25,5.23,5.22,5.22,5.20,5.19,5.21,5.20,5.19,5.17,5.18,5.19,5.18,5.17,5.17,5.17,5.17,5.16,5.17,5.17,5.18,5.16,5.16,5.17,5.17,5.16,5.16,5.17,5.18,5.18,5.17,5.19,5.20,5.20,5.19,5.19,5.19,5.18,5.16,5.17,5.17,5.14,5.12,5.10,5.09,5.07,5.06,5.03,5.04,5.03,5.01,5.01,5.02,5.04,5.01,5.01,5.01,5.02,5.02,5.00,5.00,5.01,5.00,4.99,5.00,5.01,5.00,4.98,4.97,4.99,4.99,4.97,4.97,4.97,4.98,4.97,4.96,4.97,4.96,4.96,4.95,4.97,4.96,4.95,4.94,4.96,4.97,4.96,4.94,4.95,4.96,4.96,4.96,4.96,4.98,5.00,5.06,5.39,5.88,5.82,5.50,5.38,5.34,5.29,5.23,5.15,5.02,4.81,4.50,4.15,3.81,3.44,3.08,2.82,2.65,2.61,2.45,2.33,2.23,2.17,2.13,2.09,2.07,2.07,2.06,2.04,2.04,2.07,2.10,2.16,2.24,2.39,2.56,2.75,2.98,3.28,3.60,3.90,4.17,4.45,4.54,4.94,5.13,5.32,5.51,5.66,5.75,5.82,5.90,5.94,5.98,6.03,6.08,6.12,6.15,6.19,6.25,6.30,6.33,6.37
6.42,6.48,6.51,6.56,6.61,6.63,6.71,6.75,6.80,6.85,6.89,6.92,6.96,7.00,7.03,7.05,7.06,7.08,7.09,7.08,7.05,7.04,7.01,6.96,6.91,6.86,6.81,6.73,6.63,6.57,6.55,6.42,6.33,6.25,6.19,6.10,6.00,5.92,5.87,5.80,5.71,5.66,5.61,5.56,5.50,5.46,5.43,5.40,5.35,5.31,5.29,5.28,5.24,5.21,5.20,5.21,5.18,5.15,5.15,5.14,5.14,5.12,5.12,5.13,5.12,5.10,5.09,5.11,5.10,5.08,5.09,5.09,5.10,5.10,5.09,5.10,5.10,5.09,5.08,5.09,5.10,5.10,5.09,5.08,5.10,5.09,5.08,5.08,5.08,5.08,5.06,5.06,5.07,5.07,5.06,5.04,5.04,5.04,5.04,5.02,5.02,5.03,5.02,5.01,5.00,5.01,5.01,4.99,4.98,4.99,4.99,4.98,4.97,4.98,4.99,4.97,4.98,4.99,5.00,4.99,5.00,5.02,5.01,5.02,5.00,5.01,5.00,4.98,4.95,4.95,4.96,4.93,4.92,4.90,4.90,4.90,4.87,4.88,4.90,4.91,4.91,4.90,4.91,4.92,4.92,4.96,5.07,5.50,5.95,5.75,5.44,5.36,5.31,5.25,5.20,5.18,4.94,4.66,4.37,4.08,3.78,3.48,3.27,3.12,2.99,2.83,2.67,2.51,2.37,2.29,2.23,2.18,2.14,2.10,2.07,2.07,2.07,2.10,2.16,2.31,2.35,2.66,2.86,3.16,3.49,3.81,4.11,4.41,4.71,4.96,5.13,5.33,5.51,5.63,5.70,5.76,5.83,5.88,5.93,5.96,6.02,6.06,6.09,6.13,6.17,6.19,6.27,6.30,6.36,6.41
6.46,6.49,6.55,6.61,6.65,6.68,6.72,6.78,6.82,6.86,6.88,6.93,6.96,6.96,6.97,6.98,6.98,6.95,6.92,6.89,6.88,6.78,6.70,6.65,6.59,6.51,6.42,6.34,6.27,6.19,6.09,6.00,5.93,5.86,5.77,5.70,5.64,5.59,5.53,5.47,5.45,5.41,5.36,5.32,5.30,5.29,5.25,5.21,5.20,5.20,5.18,5.15,5.14,5.15,5.15,5.13,5.12,5.12,5.12,5.10,5.10,5.12,5.11,5.11,5.09,5.10,5.12,5.12,5.10,5.11,5.12,5.12,5.11,5.11,5.12,5.12,5.11,5.11,5.12,5.12,5.10,5.10,5.10,5.11,5.10,5.08,5.09,5.09,5.08,5.06,5.07,5.08,5.06,5.03,5.04,5.04,5.03,5.01,5.01,5.01,5.02,5.00,5.00,5.00,5.00,5.00,4.99,4.99,4.99,4.97,4.97,4.98,4.97,4.97,4.96,4.97,4.98,4.97,4.94,4.95,4.96,4.95,4.95,4.95,4.95,4.95,4.94,4.94,4.96,4.96,4.94,4.93,4.95,4.95,4.94,4.94,4.97,4.99,5.02,5.22,5.70,6.01,5.74,5.46,5.41,5.40,5.30,5.24,5.13,4.96,4.68,4.32,3.97,3.62,3.28,2.98,2.74,2.57,2.45,2.31,2.18,2.13,2.08,2.05,2.03,2.02,2.02,2.03,2.02,2.04,2.05,2.14,2.24,2.43,2.64,2.88,3.15,3.47,3.79,4.10,4.40,4.68,4.93,5.14,5.33,5.50,5.65,5.72,5.78,5.82,5.88,5.92,5.96,5.99,6.04,6.06,6.13,6.14,6.20,6.25,6.28,6.31,6.36,6.41,6.46,6.49,6.53,6.60,6.65,6.67
6.71,6.77,6.82,6.84,6.87,6.91,6.94,6.96,6.95,6.96,6.97,6.95,6.92,6.90,6.86,6.81,6.73,6.67,6.61,6.53,6.43,6.33,6.25,6.17,6.07,5.98,5.91,5.83,5.75,5.67,5.60,5.55,5.48,5.42,5.39,5.38,5.32,5.27,5.26,5.25,5.23,5.20,5.19,5.19,5.20,5.18,5.16,5.17,5.17,5.17,5.16,5.17,5.17,5.16,5.15,5.16,5.17,5.15,5.16,5.15,5.16,5.16,5.14,5.14,5.16,5.15,5.14,5.15,5.14,5.14,5.11,5.12,5.12,5.13,5.11,5.09,5.10,5.09,5.08,5.06,5.06,5.07,5.06,5.03,5.04,5.05,5.04,5.03,5.02,5.03,5.03,5.01,5.01,5.01,5.02,4.99,4.99,5.00,5.01,4.99,4.97,4.99,4.99,4.98,4.96,4.98,4.98,4.97,4.96,4.97,4.97,4.97,4.95,4.95,4.96,4.97,4.95,4.96,4.97,4.96,4.95,4.95,4.96,4.96,4.95,4.94,4.96,4.97,4.99,5.13,5.57,5.89,5.62,5.38,5.34,5.32,5.23,5.14,5.02,4.80,4.47,4.10,3.73,3.36,3.03,2.78,2.58,2.47,2.37,2.23,2.15,2.12,2.10,2.07,2.04,2.06,2.05,2.06,2.07,2.10,2.12,2.27,2.43,2.65,2.91,3.22,3.54,3.88,4.20,4.52,4.79,5.03,5.25,5.46,5.62,5.71,5.79,5.85,5.88,5.92,5.97,6.02,6.04,6.06,6.10,6.12,6.16,6.17,6.22,6.25,6.29,6.30,6.34,6.39,6.44,6.46,6.51,6.56,6.60,6.63,6.67,6.71,6.75,6.77,6.80,6.84,6.86,6.89,6.89,6.90
6.90,6.89,6.86,6.82,6.78,6.73,6.64,6.57,6.50,6.41,6.31,6.22,6.13,6.04,5.93,5.85,5.77,5.72,5.65,5.57,5.53,5.48,5.42,5.38,5.35,5.34,5.30,5.27,5.25,5.26,5.24,5.21,5.22,5.22,5.22,5.20,5.19,5.20,5.20,5.18,5.19,5.19,5.18,5.15,5.13,5.10,5.07,5.03,4.99,5.00,5.01,5.06,5.14,5.31,5.52,5.72,5.88,6.09,6.36,6.63,6.86,7.10,7.34,7.53,7.63,7.64,7.60,7.38,6.87,6.06,5.34,5.03,4.95,4.84,4.69,4.65,4.54,4.49,4.46,4.43,4.38,4.33,4.31,4.28,4.26,4.21,4.19,4.18,4.15,4.12,4.09,4.08,4.07,4.03,4.01,4.00,3.97,3.94,3.90,3.90,3.89,3.85,3.81,3.81,3.79,3.77,3.74,3.72,3.71,3.70,3.67,3.66,3.68,3.67,3.66,3.67,3.69,3.71,3.72,3.75,3.80,3.85,3.89,3.95,4.03,4.06,4.18,4.25,4.36,4.45,4.54,4.60,4.68,4.76,4.83,4.86,4.91,4.95,4.97,4.98,5.00,5.04,5.04,5.05,5.03,5.06,5.07,5.06,5.05,5.06,5.07,5.07,5.06,5.06,5.07,5.07,5.06,5.07,5.07,5.08,5.06,5.06,5.08,5.09,5.09,5.10,5.11,5.11,5.10,5.10,5.11,5.12,5.10,5.06,5.07,5.06,5.05,5.02,5.02,5.02,5.01,4.99,4.98,5.00,5.00,5.00,5.02,5.03,5.03,5.01,5.01,5.03,5.04,5.02,5.01,5.02,5.04,5.02,5.02,5.03,5.04,5.03,5.03,5.02,5.04,5.04,5.03,5.03,5.05,5.04
5.04,5.04,5.04,5.05,5.05,5.05,5.04,5.05,5.05,5.04,5.05,5.07,5.06,5.04,5.06,5.06,5.07,5.06,5.07,5.08,5.08,5.06,5.07,5.08,5.09,5.07,5.08,5.08,5.09,5.08,5.07,5.08,5.09,5.09,5.07,5.08,5.10,5.09,5.08,5.09,5.10,5.10,5.08,5.10,5.09,5.09,5.07,5.09,5.10,5.10,5.08,5.08,5.10,5.10,5.08,5.09,5.10,5.14,5.20,5.52,6.07,6.10,5.73,5.54,5.50,5.49,5.38,5.27,5.11,4.87,4.54,4.18,3.84,3.52,3.23,3.02,2.88,2.79,2.69,2.55,2.43,2.38,2.35,2.29,2.25,2.25,2.24,2.25,2.25,2.32,2.34,2.54,2.70,2.90,3.12,3.39,3.69,4.01,4.31,4.62,4.88,5.12,5.32,5.50,5.66,5.81,5.92,6.00,6.05,6.10,6.17,6.22,6.27,6.32,6.38,6.40,6.49,6.53,6.59,6.66,6.71,6.76,6.82,6.89,6.94,6.99,7.04,7.10,7.15,7.19,7.23,7.29,7.32,7.34,7.37,7.39,7.41,7.41,7.39,7.40,7.40,7.36,7.31,7.28,7.24,7.19,7.11,7.05,6.99,6.92,6.82,6.73,6.66,6.57,6.48,6.40,6.33,6.24,6.16,6.07,6.02,5.94,5.87,5.81,5.75,5.73,5.65,5.58,5.54,5.51,5.47,5.43,5.40,5.39,5.36,5.32,5.30,5.30,5.29,5.26,5.25,5.25,5.25,5.23,5.22,5.23,5.24,5.23,5.22,5.24,5.25,5.25,5.25,5.26,5.28,5.27,5.27,5.27,5.29,5.29,5.27,5.27,5.27,5.26,5.23,5.22,5.21,5.20,5.18,5.15
5.16,5.15,5.14,5.14,5.16,5.17,5.15,5.14,5.13,5.13,5.11,5.10,5.10,5.10,5.11,5.09,5.08,5.09,5.08,5.07,5.06,5.06,5.05,5.04,5.03,5.04,5.04,5.03,5.02,5.02,5.03,5.02,5.01,5.01,5.02,5.01,5.01,5.01,5.02,5.02,5.01,5.00,5.02,5.01,5.00,5.00,5.01,5.01,5.01,5.00,5.01,5.03,5.03,5.04,5.19,5.27,5.91,5.62,5.41,5.37,5.32,5.25,5.16,5.03,4.80,4.46,4.08,3.72,3.33,2.96,2.72,2.58,2.47,2.37,2.26,2.18,2.14,2.11,2.08,2.07,2.08,2.07,2.06,2.07,2.12,2.19,2.28,2.44,2.65,2.87,3.15,3.51,3.85,4.14,4.43,4.72,4.98,5.18,5.35,5.52,5.69,5.78,5.83,5.88,5.94,5.96,6.03,6.06,6.10,6.16,6.19,6.23,6.26,6.32,6.37,6.40,6.44,6.50,6.54,6.58,6.63,6.70,6.73,6.76,6.81,6.86,6.91,6.93,6.95,6.98,6.99,7.01,7.02,7.03,7.02,7.00,6.96,6.92,6.88,6.82,6.74,6.67,6.60,6.52,6.42,6.34,6.27,6.16,6.08,6.00,5.92,5.87,5.78,5.70,5.65,5.63,5.53,5.47,5.43,5.40,5.35,5.32,5.29,5.27,5.24,5.20,5.19,5.19,5.18,5.15,5.13,5.13,5.13,5.11,5.10,5.10,5.11,5.10,5.08,5.10,5.10,5.10,5.07,5.08,5.09,5.09,5.08,5.08,5.09,5.09,5.10,5.10,5.10,5.10,5.08,5.07,5.09,5.08,5.08,5.07,5.07,5.08,5.07,5.06,5.05,5.05,5.06,5.04,5.03,5.03
5.02,5.02,5.01,5.01,5.01,4.99,4.98,5.00,5.00,4.98,4.98,4.98,4.99,4.97,4.98,4.99,5.01,5.00,4.99,5.01,5.01,5.02,5.00,4.99,5.01,5.00,4.98,4.97,4.97,4.96,4.94,4.94,4.95,4.94,4.92,4.89,4.90,4.89,4.88,4.89,4.92,4.92,4.92,4.91,4.92,4.92,4.92,4.91,4.91,4.92,4.93,4.92,4.93,4.97,5.03,5.26,5.73,5.93,5.64,5.42,5.35,5.32,5.30,5.24,5.17,5.07,4.90,4.66,4.39,4.16,4.09,3.63,3.41,3.24,3.08,2.94,2.78,2.61,2.48,2.36,2.29,2.23,2.18,2.14,2.10,2.08,2.09,2.09,2.09,2.13,2.21,2.31,2.47,2.65,2.85,2.92,3.39,3.66,3.96,4.23,4.50,4.75,4.99,5.18,5.35,5.50,5.63,5.72,5.78,5.82,5.86,5.92,5.95,5.99,6.02,6.07,6.11,6.14,6.15,6.20,6.22,6.28,6.32,6.38,6.42,6.47,6.50,6.54,6.60,6.65,6.68,6.73,6.79,6.82,6.85,6.88,6.92,6.94,6.94,6.95,6.96,6.96,6.94,6.91,6.89,6.89,6.83,6.76,6.71,6.65,6.59,6.50,6.44,6.37,6.28,6.18,6.11,6.03,5.95,5.87,5.79,5.73,5.68,5.61,5.54,5.51,5.47,5.43,5.38,5.35,5.34,5.28,5.23,5.22,5.21,5.20,5.17,5.15,5.15,5.14,5.11,5.11,5.11,5.11,5.09,5.08,5.08,5.08,5.07,5.07,5.07,5.08,5.07,5.06,5.09,5.10,5.09,5.08,5.08,5.09,5.09,5.09,5.08,5.08,5.09,5.08,5.08,5.09,5.10,5.08
5.07,5.08,5.08,5.07,5.05,5.07,5.07,5.05,5.03,5.05,5.06,5.04,5.03,5.02,5.02,5.02,5.00,5.00,5.00,5.00,4.99,4.98,4.99,4.98,4.97,4.96,4.97,4.97,4.96,4.95,4.96,4.96,4.95,4.94,4.94,4.95,4.94,4.93,4.94,4.95,4.94,4.94,4.92,4.94,4.93,4.93,4.92,4.93,4.94,4.91,4.93,4.94,4.94,4.93,4.92,4.93,4.93,4.93,4.94,4.94,4.95,4.98,4.98,5.03,5.16,5.53,5.91,5.82,5.54,5.44,5.36,5.31,5.26,5.17,5.01,4.76,4.47,4.11,3.70,3.29,2.97,2.72,2.54,2.42,2.30,2.26,2.11,2.07,2.05,2.04,2.02,2.02,2.03,2.04,2.06,2.08,2.15,2.28,2.45,2.61,2.84,3.12,3.43,3.72,4.01,4.32,4.60,4.85,5.07,5.28,5.34,5.62,5.72,5.79,5.85,5.89,5.93,5.98,6.02,6.07,6.08,6.12,6.17,6.22,6.25,6.29,6.34,6.38,6.41,6.45,6.50,6.54,6.58,6.61,6.66,6.68,6.73,6.76,6.79,6.84,6.86,6.86,6.90,6.92,6.92,6.91,6.90,6.90,6.88,6.84,6.79,6.74,6.68,6.60,6.53,6.45,6.36,6.28,6.18,6.10,6.08,5.93,5.85,5.78,5.72,5.64,5.57,5.52,5.47,5.44,5.38,5.34,5.31,5.29,5.24,5.21,5.21,5.18,5.16,5.14,5.14,5.14,5.12,5.11,5.11,5.12,5.10,5.11,5.10,5.11,5.12,5.10,5.11,5.12,5.11,5.10,5.11,5.11,5.12,5.11,5.11,5.12,5.11,5.09,5.09,5.09,5.11,5.09,5.07,5.09
5.09,5.07,5.06,5.06,5.06,5.06,5.04,5.04,5.05,5.04,5.02,5.01,5.01,5.01,5.00,4.99,4.99,4.99,4.98,4.97,4.98,4.97,4.97,4.96,4.95,4.96,4.95,4.94,4.94,4.94,4.94,4.92,4.93,4.94,4.94,4.93,4.93,4.94,4.94,4.93,4.93,4.94,4.93,4.92,4.91,4.92,4.93,4.92,4.91,4.92,4.91,4.91,4.90,4.92,4.92,4.92,4.91,4.92,4.93,4.94,4.93,4.93,4.97,5.08,5.42,5.89,5.81,5.45,5.31,5.27,5.21,5.13,4.98,4.71,4.37,4.26,3.60,3.18,2.88,2.65,2.46,2.32,2.19,2.12,2.07,2.03,2.02,2.02,2.01,2.00,2.02,2.05,2.07,2.13,2.25,2.43,2.67,2.97,3.34,3.73,3.85,4.49,4.79,5.05,5.28,5.49,5.63,5.73,5.80,5.86,5.90,5.96,5.99,6.03,6.06,6.08,6.13,6.16,6.18,6.22,6.27,6.31,6.34,6.36,6.42,6.44,6.51,6.54,6.60,6.65,6.68,6.71,6.77,6.81,6.84,6.86,6.87,6.90,6.92,6.90,6.89,6.88,6.86,6.79,6.74,6.69,6.62,6.53,6.44,6.36,6.33,6.16,6.06,5.97,5.89,5.79,5.70,5.63,5.58,5.51,5.45,5.40,5.37,5.32,5.29,5.26,5.24,5.23,5.20,5.18,5.17,5.18,5.16,5.13,5.13,5.14,5.14,5.12,5.13,5.13,5.14,5.12,5.12,5.13,5.13,5.11,5.11,5.13,5.12,5.11,5.11,5.11,5.12,5.11,5.09,5.10,5.10,5.09,5.07,5.08,5.08,5.08,5.07,5.05,5.06,5.05,5.03,5.03,5.03,5.02
5.01,5.00,5.00,5.01,4.98,4.97,4.98,4.99,4.97,4.96,4.96,4.97,4.95,4.94,4.95,4.96,4.95,4.94,4.94,4.95,4.94,4.93,4.93,4.94,4.94,4.93,4.93,4.93,4.94,4.92,4.92,4.93,4.93,4.92,4.90,4.92,4.92,4.92,4.91,4.92,4.93,4.91,4.90,4.91,4.92,4.91,4.90,4.91,4.92,4.93,4.93,4.95,5.11,5.54,5.84,5.58,5.35,5.31,5.25,5.19,5.11,4.95,4.68,4.34,3.97,3.85,3.22,2.92,2.70,2.54,2.41,2.25,2.14,2.10,2.06,2.03,2.02,2.01,2.02,2.02,2.02,2.08,2.15,2.28,2.46,2.68,2.93,3.24,3.57,3.91,4.01,4.50,4.76,5.00,5.22,5.38,5.52,5.64,5.72,5.79,5.82,5.86,5.91,5.94,5.96,5.99,6.04,6.07,6.08,6.11,6.16,6.18,6.21,6.24,6.27,6.28,6.35,6.37,6.42,6.46,6.49,6.52,6.56,6.62,6.65,6.67,6.71,6.74,6.76,6.77,6.77,6.80,6.79,6.76,6.73,6.72,6.67,6.61,6.54,6.49,6.47,6.33,6.24,6.15,6.06,5.98,5.87,5.80,5.73,5.64,5.57,5.51,5.47,5.41,5.36,5.32,5.30,5.28,5.23,5.20,5.19,5.18,5.17,5.14,5.15,5.15,5.14,5.12,5.12,5.13,5.13,5.11,5.12,5.13,5.14,5.11,5.11,5.12,5.13,5.12,5.12,5.12,5.12,5.11,5.10,5.10,5.11,5.11,5.09,5.09,5.10,5.08,5.07,5.08,5.07,5.07,5.05,5.05,5.05,5.04,5.03,5.02,5.03,5.02,5.00,5.00,5.00,5.00,4.98,4.97
4.98,4.98,4.97,4.95,4.96,4.97,4.96,4.94,4.94,4.96,4.96,4.94,4.95,4.95,4.95,4.93,4.93,4.94,4.94,4.93,4.93,4.94,4.95,4.93,4.91,4.92,4.93,4.92,4.92,4.93,4.93,4.93,4.91,4.93,4.94,4.93,4.92,4.92,4.94,4.94,4.95,5.01,5.29,5.73,5.72,5.42,5.33,5.30,5.25,5.17,5.08,4.89,4.58,4.23,3.86,3.75,3.14,2.87,2.67,2.53,2.38,2.23,2.15,2.10,2.08,2.05,2.04,2.04,2.04,2.03,2.05,2.09,2.16,2.28,2.47,2.73,3.04,3.39,3.73,4.05,4.15,4.66,4.91,5.13,5.34,5.51,5.64,5.72,5.78,5.82,5.85,5.89,5.95,5.99,6.04,6.06,6.11,6.13,6.15,6.18,6.22,6.26,6.29,6.31,6.35,6.37,6.42,6.44,6.50,6.54,6.58,6.60,6.65,6.69,6.73,6.76,6.79,6.83,6.85,6.86,6.87,6.88,6.89,6.87,6.84,6.81,6.78,6.72,6.64,6.59,6.56,6.42,6.33,6.26,6.17,6.08,5.97,5.88,5.82,5.74,5.64,5.58,5.54,5.48,5.42,5.38,5.35,5.31,5.27,5.25,5.24,5.23,5.20,5.17,5.18,5.18,5.16,5.15,5.15,5.16,5.15,5.13,5.13,5.14,5.14,5.13,5.14,5.15,5.15,5.13,5.14,5.14,5.15,5.13,5.13,5.13,5.13,5.12,5.10,5.11,5.12,5.11,5.09,5.09,5.09,5.09,5.07,5.07,5.06,5.06,5.05,5.03,5.05,5.04,5.01,5.01,5.02,5.01,5.00,4.99,5.00,5.01,4.98,4.96,4.98,4.99,4.98,4.97,4.96,4.97
4.96,4.96,4.95,4.96,4.96,4.95,4.94,4.95,4.95,4.94,4.94,4.96,4.95,4.94,4.93,4.94,4.95,4.94,4.93,4.94,4.95,4.94,4.93,4.92,4.93,4.93,4.93,4.93,4.94,4.94,4.93,4.94,4.96,4.97,4.99,5.15,5.59,5.82,5.57,5.36,5.30,5.23,5.13,4.97,4.78,4.72,4.24,3.93,3.69,3.47,3.24,2.97,2.68,2.52,2.38,2.27,2.16,2.12,2.09,2.06,2.05,2.05,2.04,2.05,2.05,2.10,2.17,2.27,2.42,2.65,2.72,3.23,3.58,3.94,4.26,4.55,4.79,5.04,5.28,5.49,5.61,5.71,5.79,5.84,5.88,5.93,5.98,6.00,6.02,6.06,6.10,6.13,6.15,6.18,6.22,6.24,6.29,6.32,6.36,6.41,6.45,6.48,6.53,6.59,6.63,6.65,6.69,6.75,6.77,6.79,6.82,6.85,6.86,6.86,6.85,6.87,6.86,6.84,6.80,6.78,6.77,6.70,6.63,6.60,6.54,6.46,6.36,6.29,6.21,6.13,6.03,5.94,5.87,5.80,5.71,5.63,5.59,5.53,5.46,5.41,5.36,5.33,5.29,5.26,5.23,5.23,5.18,5.16,5.15,5.16,5.14,5.12,5.12,5.13,5.13,5.11,5.12,5.12,5.13,5.11,5.11,5.13,5.12,5.12,5.11,5.12,5.13,5.12,5.12,5.12,5.13,5.12,5.11,5.11,5.12,5.11,5.09,5.10,5.09,5.09,5.08,5.07,5.09,5.07,5.05,5.04,5.06,5.05,5.03,5.03,5.03,5.03,5.01,5.00,5.02,5.01,5.00,4.99,4.99,4.99,4.97,4.96,4.97,4.98,4.98,4.97,4.97,4.96,4.96,4.95
4.94,4.95,4.95,4.95,4.93,4.94,4.95,4.94,4.94,4.93,4.94,4.93,4.92,4.93,4.93,4.93,4.93,4.92,4.93,4.93,4.92,4.92,4.94,4.93,4.92,4.92,4.92,4.93,4.92,4.91,4.93,4.95,4.99,5.17,5.66,5.84,5.64,5.38,5.31,5.25,5.14,4.98,4.77,4.52,4.22,3.90,3.63,3.41,3.20,2.94,2.67,2.51,2.37,2.24,2.12,2.08,2.06,2.03,2.01,2.02,2.02,2.03,2.03,2.09,2.19,2.32,2.51,2.77,3.06,3.40,3.74,4.08,4.40,4.67,4.91,5.13,5.34,5.50,5.61,5.68,5.75,5.80,5.84,5.86,5.92,5.94,5.97,6.00,6.03,6.06,6.08,6.09,6.14,6.18,6.20,6.23,6.26,6.31,6.34,6.36,6.39,6.44,6.49,6.52,6.55,6.59,6.63,6.65,6.67,6.71,6.73,6.75,6.76,6.77,6.76,6.76,6.73,6.71,6.68,6.63,6.57,6.52,6.46,6.40,6.30,6.22,6.17,6.08,5.99,5.91,5.86,5.77,5.69,5.61,5.56,5.55,5.45,5.39,5.35,5.32,5.28,5.24,5.22,5.21,5.18,5.16,5.15,5.15,5.14,5.14,5.13,5.16,5.15,5.14,5.13,5.16,5.15,5.14,5.13,5.15,5.16,5.15,5.13,5.14,5.12,5.10,5.09,5.08,5.09,5.07,5.05,5.05,5.06,5.06,5.04,5.07,5.07,5.06,5.03,5.03,5.04,5.05,5.02,5.02,5.02,5.03,5.02,5.00,5.01,5.01,5.00,4.98,4.99,4.99,4.98,4.96,4.96,4.98,4.97,4.95,4.95,4.96,4.96,4.95,4.94,4.95,4.95,4.94,4.93,4.94
4.95,4.93,4.92,4.94,4.94,4.94,4.94,4.94,4.95,4.95,4.93,4.94,4.96,4.96,4.94,4.94,4.95,4.95,4.94,4.93,4.95,4.95,4.95,4.94,4.95,4.96,4.96,4.95,4.95,4.97,4.97,4.96,4.99,5.08,5.34,5.82,5.88,5.57,5.43,5.38,5.33,5.29,5.23,5.10,4.89,4.62,4.30,3.95,3.59,3.28,3.19,2.83,2.66,2.57,2.46,2.31,2.21,2.17,2.15,2.12,2.08,2.07,2.09,2.08,2.09,2.12,2.22,2.34,2.48,2.67,2.90,3.16,3.44,3.74,4.03,4.12,4.60,4.84,5.06,5.25,5.43,5.59,5.71,5.80,5.85,5.89,5.94,6.00,6.04,6.06,6.10,6.16,6.19,6.21,6.25,6.30,6.35,6.38,6.42,6.48,6.50,6.57,6.61,6.66,6.71,6.75,6.79,6.85,6.89,6.92,6.95,6.97,7.01,7.03,7.03,7.02,7.04,7.03,7.00,6.98,6.94,6.90,6.83,6.77,6.71,6.69,6.57,6.48,6.41,6.32,6.23,6.14,6.07,5.99,5.91,5.83,5.77,5.71,5.65,5.59,5.52,5.49,5.45,5.40,5.36,5.33,5.30,5.28,5.24,5.24,5.24,5.20,5.18,5.17,5.17,5.15,5.14,5.13,5.14,5.13,5.12,5.12,5.13,5.14,5.13,5.13,5.14,5.15,5.14,5.14,5.15,5.16,5.16,5.16,5.18,5.19,5.18,5.17,5.16,5.16,5.15,5.13,5.13,5.12,5.10,5.07,5.05,5.04,5.04,5.02,5.01,5.04,5.06,5.04,5.04,5.05,5.03,5.03,5.01,5.02,5.02,5.01,5.01,5.01,5.01,5.01,5.00,4.99,4.99,4.98
4.98,4.97,4.98,4.97,4.96,4.97,4.99,4.97,4.97,4.96,4.97,4.96,4.95,4.95,4.95,4.96,4.95,4.95,4.95,4.96,4.97,4.95,4.95,4.97,4.96,4.96,4.95,4.96,4.96,4.96,4.95,4.97,4.97,4.97,4.96,4.99,5.01,5.05,5.24,5.68,5.83,5.63,5.42,5.37,5.33,5.28,5.21,5.12,4.95,4.71,4.39,4.05,3.73,3.37,3.05,2.82,2.66,2.55,2.44,2.33,2.25,2.16,2.10,2.09,2.06,2.06,2.04,2.02,2.03,2.05,2.06,2.10,2.16,2.28,2.42,2.58,2.79,3.06,3.35,3.65,3.97,4.28,4.57,4.83,5.04,5.24,5.42,5.57,5.71,5.82,5.85,5.94,5.99,6.04,6.08,6.12,6.15,6.19,6.25,6.28,6.31,6.35,6.40,6.45,6.48,6.53,6.59,6.63,6.68,6.72,6.78,6.83,6.87,6.90,6.95,6.97,7.02,7.03,7.07,7.10,7.11,7.11,7.11,7.13,7.11,7.08,7.05,7.03,6.98,6.91,6.84,6.80,6.72,6.63,6.54,6.47,6.38,6.28,6.20,6.12,6.10,5.96,5.88,5.81,5.75,5.68,5.60,5.56,5.52,5.47,5.41,5.38,5.35,5.31,5.28,5.25,5.25,5.22,5.20,5.18,5.18,5.17,5.14,5.13,5.13,5.13,5.12,5.11,5.10,5.11,5.11,5.10,5.10,5.11,5.10,5.09,5.09,5.11,5.10,5.10,5.10,5.11,5.10,5.09,5.09,5.11,5.11,5.10,5.09,5.10,5.11,5.09,5.08,5.09,5.10,5.08,5.07,5.07,5.08,5.07,5.05,5.05,5.06,5.04,5.02,5.02,5.02,5.02,5.01,5.00
5.00,5.00,5.00,4.99,5.00,4.99,4.98,4.97,4.98,4.99,4.98,4.96,4.98,4.98,4.97,4.96,4.96,4.99,5.00,4.99,5.00,5.01,5.01,5.00,4.99,5.01,5.01,5.00,4.98,4.98,4.97,4.94,4.94,4.94,4.93,4.92,4.90,4.90,4.91,4.91,4.92,4.93,4.97,5.03,5.30,5.78,5.83,5.50,5.36,5.31,5.27,5.23,5.13,4.97,4.76,4.69,4.13,3.77,3.43,3.16,2.98,2.84,2.76,2.62,2.47,2.32,2.24,2.19,2.14,2.08,2.05,2.06,2.04,2.03,2.04,2.08,2.16,2.28,2.44,2.64,2.71,3.18,3.50,3.84,4.17,4.47,4.74,5.01,5.22,5.41,5.58,5.72,5.81,5.87,5.91,5.97,6.04,6.07,6.10,6.14,6.21,6.24,6.28,6.33,6.40,6.42,6.49,6.52,6.58,6.64,6.67,6.71,6.77,6.82,6.85,6.88,6.93,6.97,7.00,7.02,7.04,7.06,7.07,7.05,7.02,7.02,6.97,6.92,6.86,6.80,6.78,6.65,6.57,6.49,6.41,6.31,6.21,6.12,6.03,5.96,5.87,5.79,5.73,5.66,5.58,5.52,5.48,5.44,5.38,5.34,5.32,5.29,5.24,5.21,5.20,5.19,5.15,5.12,5.13,5.13,5.11,5.09,5.09,5.08,5.08,5.07,5.06,5.07,5.07,5.05,5.06,5.07,5.07,5.05,5.05,5.07,5.06,5.06,5.05,5.06,5.07,5.07,5.05,5.06,5.08,5.07,5.07,5.06,5.08,5.07,5.05,5.05,5.07,5.06,5.05,5.04,5.05,5.05,5.03,5.02,5.03,5.03,5.01,5.00,5.01,5.02,5.00,4.99,4.99,5.00
4.99,4.97,4.97,4.99,4.98,4.96,4.96,4.97,4.96,4.95,4.95,4.97,4.96,4.95,4.93,4.95,4.95,4.95,4.94,4.95,4.95,4.95,4.94,4.94,4.96,4.94,4.93,4.95,4.96,4.95,4.94,4.94,4.96,4.95,4.95,4.97,5.01,5.07,5.28,5.83,6.00,5.67,5.46,5.41,5.37,5.35,5.18,4.97,4.68,4.30,3.90,3.51,3.16,2.87,2.63,2.45,2.30,2.17,2.07,2.03,2.00,1.99,1.98,1.97,1.97,2.00,2.05,2.14,2.34,2.59,2.67,3.14,3.47,3.81,4.12,4.42,4.72,4.99,5.23,5.43,5.56,5.67,5.75,5.81,5.84,5.90,5.95,5.97,6.00,6.04,6.09,6.14,6.16,6.19,6.24,6.26,6.32,6.36,6.40,6.46,6.50,6.54,6.59,6.63,6.67,6.70,6.74,6.78,6.81,6.83,6.85,6.88,6.90,6.88,6.87,6.86,6.85,6.79,6.74,6.69,6.68,6.55,6.46,6.39,6.31,6.22,6.13,6.05,5.97,5.89,5.79,5.71,5.65,5.59,5.52,5.46,5.42,5.37,5.33,5.29,5.28,5.25,5.21,5.19,5.19,5.19,5.17,5.15,5.13,5.15,5.13,5.13,5.15,5.15,5.14,5.13,5.14,5.14,5.15,5.13,5.13,5.14,5.15,5.14,5.14,5.15,5.16,5.15,5.14,5.14,5.15,5.13,5.12,5.13,5.12,5.11,5.10,5.10,5.10,5.09,5.08,5.07,5.08,5.07,5.06,5.05,5.06,5.04,5.03,5.02,5.03,5.03,5.01,4.99,5.00,5.00,4.99,4.98,4.99,4.99,4.99,4.97,4.97,4.97,4.97,4.95,4.95,4.97,4.95,4.95
4.94,4.96,4.96,4.95,4.94,4.95,4.94,4.94,4.94,4.94,4.95,4.94,4.93,4.95,4.95,4.94,4.94,4.94,4.95,4.95,4.94,4.95,4.99,5.06,5.36,5.83,5.81,5.47,5.36,5.31,5.26,5.20,5.06,4.84,4.52,4.41,3.77,3.34,3.03,2.77,2.56,2.41,2.28,2.15,2.06,2.03,2.00,1.99,1.97,1.94,1.94,1.97,1.99,2.01,2.08,2.22,2.41,2.63,2.91,3.28,3.39,3.98,4.33,4.65,4.90,5.12,5.32,5.51,5.67,5.78,5.83,5.90,5.96,6.00,6.03,6.07,6.11,6.13,6.15,6.19,6.23,6.26,6.28,6.31,6.36,6.38,6.42,6.45,6.50,6.54,6.58,6.61,6.65,6.71,6.74,6.77,6.82,6.85,6.88,6.91,6.92,6.95,6.94,6.94,6.93,6.93,6.90,6.84,6.80,6.75,6.73,6.60,6.49,6.42,6.34,6.24,6.13,6.06,5.97,5.89,5.79,5.71,5.65,5.59,5.52,5.46,5.43,5.38,5.32,5.29,5.28,5.25,5.22,5.19,5.20,5.20,5.17,5.17,5.17,5.17,5.16,5.15,5.15,5.16,5.16,5.13,5.14,5.15,5.15,5.14,5.15,5.14,5.14,5.14,5.12,5.14,5.14,5.13,5.12,5.12,5.12,5.11,5.09,5.09,5.11,5.08,5.08,5.08,5.07,5.05,5.04,5.04,5.05,5.04,5.02,5.02,5.02,5.01,4.99,4.99,5.00,4.99,4.97,4.95,4.97,4.98,4.97,4.95,4.95,4.96,4.95,4.94,4.94,4.95,4.95,4.94,4.93,4.94,4.95,4.93,4.93,4.94,4.94,4.92,4.92,4.94,4.94,4.92,4.91,4.92
4.93,4.91,4.90,4.92,4.93,4.92,4.91,4.91,4.94,4.93,4.94,4.99,5.21,5.68,5.85,5.53,5.35,5.30,5.20,5.06,4.88,4.62,4.29,3.93,3.64,3.55,3.12,2.85,2.59,2.41,2.26,2.13,2.04,2.01,1.98,1.94,1.94,1.93,1.94,1.94,1.97,2.01,2.09,2.23,2.42,2.68,2.97,3.32,3.67,4.05,4.17,4.66,4.91,5.15,5.38,5.55,5.67,5.76,5.81,5.85,5.87,5.90,5.95,5.98,6.00,6.05,6.10,6.13,6.14,6.17,6.20,6.24,6.26,6.29,6.33,6.35,6.40,6.42,6.46,6.50,6.51,6.54,6.59,6.63,6.64,6.68,6.72,6.75,6.77,6.77,6.79,6.81,6.82,6.79,6.79,6.78,6.75,6.70,6.64,6.60,6.58,6.46,6.37,6.29,6.21,6.12,6.03,5.96,5.88,5.79,5.71,5.65,5.58,5.53,5.46,5.41,5.37,5.34,5.29,5.26,5.24,5.23,5.20,5.18,5.18,5.18,5.15,5.14,5.15,5.15,5.15,5.13,5.13,5.13,5.13,5.11,5.13,5.14,5.13,5.12,5.11,5.13,5.14,5.13,5.12,5.13,5.13,5.11,5.10,5.11,5.12,5.11,5.09,5.10,5.10,5.09,5.08,5.08,5.08,5.06,5.05,5.05,5.06,5.05,5.03,5.03,5.02,5.03,5.02,5.00,5.01,5.00,5.00,5.00,5.00,5.01,4.98,4.99,4.98,4.98,4.98,4.97,4.98,4.98,4.97,4.96,4.95,4.97,4.97,4.95,4.95,4.97,4.96,4.95,4.95,4.96,4.95,4.95,4.94,4.96,4.96,4.95,4.95,4.96,4.96,4.96,4.94,4.95,4.96,4.95
4.94,4.95,4.96,4.97,4.96,4.96,5.00,5.03,5.15,5.54,5.98,5.87,5.55,5.41,5.39,5.37,5.27,5.17,5.02,4.80,4.49,4.16,3.83,3.49,3.17,2.91,2.70,2.56,2.42,2.26,2.15,2.10,2.05,2.01,1.99,1.99,1.99,1.98,1.98,2.01,2.02,2.11,2.21,2.39,2.59,2.83,3.10,3.45,3.79,4.11,4.40,4.67,4.92,5.13,5.31,5.49,5.65,5.75,5.80,5.85,5.90,5.93,5.94,5.98,6.03,6.05,6.12,6.15,6.18,6.21,6.23,6.25,6.29,6.33,6.36,6.37,6.42,6.45,6.49,6.50,6.54,6.58,6.61,6.63,6.66,6.72,6.74,6.76,6.79,6.82,6.84,6.87,6.87,6.90,6.90,6.89,6.87,6.85,6.83,6.78,6.73,6.68,6.62,6.55,6.45,6.38,6.32,6.21,6.11,6.03,5.96,5.88,5.79,5.73,5.67,5.65,5.55,5.49,5.46,5.43,5.38,5.34,5.32,5.32,5.29,5.26,5.25,5.25,5.23,5.22,5.22,5.23,5.21,5.20,5.21,5.22,5.21,5.20,5.19,5.22,5.23,5.22,5.21,5.21,5.23,5.22,5.21,5.21,5.23,5.22,5.21,5.20,5.22,5.21,5.20,5.20,5.21,5.20,5.18,5.17,5.18,5.18,5.16,5.14,5.14,5.15,5.13,5.12,5.12,5.12,5.10,5.08,5.09,5.09,5.08,5.07,5.06,5.07,5.06,5.04,5.05,5.06,5.05,5.03,5.03,5.04,5.04,5.02,5.02,5.03,5.03,5.02,5.01,5.01,5.02,5.01,5.00,5.00,5.01,5.01,4.99,4.99,5.00,5.00,4.99,5.00,5.02,5.00,4.99,4.97
5.00,5.00,4.99,4.99,5.00,5.00,5.00,5.01,5.04,5.13,5.38,5.84,6.01,5.67,5.47,5.41,5.36,5.32,5.22,5.07,4.85,4.58,4.23,3.87,3.51,3.21,2.95,2.72,2.56,2.45,2.41,2.17,2.09,2.06,2.03,1.98,1.97,1.97,1.98,1.97,1.97,2.00,2.07,2.16,2.28,2.45,2.65,2.90,3.19,3.54,3.88,4.23,4.53,4.80,5.04,5.11,5.44,5.61,5.73,5.82,5.89,5.95,6.01,6.06,6.09,6.11,6.15,6.19,6.21,6.23,6.26,6.31,6.34,6.35,6.38,6.42,6.46,6.48,6.52,6.56,6.58,6.63,6.67,6.72,6.76,6.79,6.83,6.88,6.91,6.94,6.96,7.00,7.02,7.03,7.01,7.01,7.02,6.98,6.95,6.90,6.87,6.79,6.71,6.63,6.57,6.55,6.38,6.28,6.20,6.11,6.01,5.91,5.85,5.77,5.70,5.62,5.57,5.52,5.46,5.41,5.37,5.35,5.32,5.28,5.24,5.25,5.22,5.20,5.18,5.18,5.19,5.17,5.15,5.16,5.16,5.15,5.14,5.15,5.16,5.15,5.15,5.14,5.15,5.14,5.13,5.14,5.15,5.15,5.14,5.12,5.14,5.14,5.13,5.13,5.13,5.14,5.12,5.11,5.11,5.11,5.10,5.08,5.09,5.10,5.09,5.07,5.06,5.06,5.05,5.04,5.03,5.04,5.03,5.03,5.01,5.02,5.02,5.00,4.99,4.99,5.00,4.98,4.97,4.99,4.99,4.98,4.97,4.98,4.97,4.95,4.94,4.95,4.96,4.95,4.94,4.95,4.96,4.96,4.95,4.93,4.95,4.96,4.94,4.92,4.94,4.94,4.93,4.93,4.93,4.94
4.94,4.93,4.93,4.94,4.93,4.93,4.93,4.94,4.95,4.95,4.99,5.11,5.51,5.93,5.76,5.48,5.36,5.30,5.23,5.16,5.13,4.83,4.55,4.23,3.88,3.50,3.12,2.84,2.64,2.46,2.34,2.20,2.09,2.00,1.96,1.93,1.93,1.91,1.89,1.89,1.91,1.92,1.95,2.00,2.13,2.19,2.48,2.73,3.05,3.38,3.69,3.98,4.30,4.63,4.90,5.13,5.35,5.53,5.67,5.74,5.81,5.87,5.91,5.94,5.98,6.03,6.06,6.08,6.10,6.15,6.16,6.19,6.22,6.26,6.30,6.32,6.36,6.40,6.45,6.49,6.52,6.57,6.61,6.65,6.69,6.73,6.77,6.80,6.83,6.86,6.89,6.90,6.91,6.92,6.92,6.93,6.89,6.85,6.82,6.78,6.70,6.62,6.55,6.47,6.38,6.28,6.20,6.13,6.03,5.94,5.86,5.79,5.71,5.63,5.56,5.52,5.47,5.41,5.37,5.34,5.34,5.27,5.24,5.23,5.21,5.18,5.17,5.16,5.15,5.15,5.14,5.13,5.14,5.12,5.11,5.12,5.12,5.11,5.10,5.11,5.11,5.11,5.10,5.10,5.12,5.13,5.10,5.09,5.11,5.11,5.09,5.09,5.09,5.10,5.10,5.09,5.08,5.10,5.08,5.07,5.07,5.08,5.06,5.05,5.03,5.05,5.05,5.03,5.02,5.03,5.03,5.01,5.00,5.00,5.00,4.99,4.98,4.97,4.98,4.97,4.95,4.95,4.98,4.96,4.93,4.94,4.96,4.95,4.93,4.93,4.94,4.93,4.92,4.92,4.93,4.94,4.93,4.92,4.93,4.94,4.92,4.91,4.91,4.93,4.91,4.91,4.92,4.93,4.92,4.90
4.91,4.92,4.91,4.90,4.90,4.91,4.91,4.91,4.91,4.92,4.92,4.93,4.94,4.99,5.11,5.40,5.77,5.73,5.49,5.38,5.34,5.29,5.25,5.16,5.02,4.79,4.51,4.18,3.84,3.51,3.22,2.97,2.74,2.57,2.47,2.43,2.16,2.04,2.02,1.98,1.94,1.91,1.90,1.90,1.89,1.89,1.92,1.97,2.02,2.12,2.28,2.45,2.66,2.91,3.24,3.58,3.89,4.21,4.50,4.76,4.84,5.18,5.36,5.53,5.63,5.70,5.76,5.80,5.87,5.89,5.90,5.96,6.00,6.00,6.03,6.06,6.10,6.11,6.14,6.16,6.21,6.23,6.26,6.30,6.34,6.36,6.41,6.44,6.50,6.54,6.57,6.61,6.66,6.71,6.73,6.77,6.80,6.84,6.85,6.86,6.87,6.89,6.88,6.86,6.84,6.81,6.77,6.70,6.63,6.57,6.55,6.43,6.34,6.27,6.19,6.11,6.01,5.95,5.88,5.79,5.71,5.65,5.60,5.52,5.46,5.41,5.39,5.34,5.29,5.26,5.25,5.21,5.19,5.17,5.18,5.19,5.16,5.15,5.15,5.15,5.14,5.13,5.13,5.14,5.14,5.12,5.13,5.14,5.14,5.13,5.13,5.14,5.14,5.13,5.12,5.14,5.13,5.12,5.13,5.13,5.14,5.11,5.12,5.11,5.11,5.11,5.09,5.09,5.09,5.07,5.06,5.07,5.07,5.05,5.04,5.04,5.04,5.02,5.02,5.01,5.01,5.00,4.98,4.98,4.99,5.00,4.97,4.96,4.96,4.97,4.95,4.95,4.96,4.96,4.95,4.94,4.93,4.95,4.93,4.93,4.92,4.93,4.92,4.91,4.92,4.92,4.93,4.91,4.90,4.92
4.92,4.91,4.91,4.93,4.92,4.91,4.90,4.91,4.91,4.90,4.90,4.91,4.93,4.93,4.94,4.99,5.19,5.68,5.93,5.64,5.41,5.34,5.29,5.24,5.19,5.16,4.90,4.65,4.36,4.03,3.65,3.26,2.95,2.71,2.51,2.35,2.20,2.06,1.97,1.92,1.89,1.87,1.85,1.83,1.84,1.86,1.88,1.94,2.05,2.22,2.29,2.66,2.99,3.35,3.66,3.97,4.29,4.58,4.83,5.03,5.22,5.45,5.60,5.70,5.76,5.83,5.89,5.93,5.96,6.00,6.04,6.08,6.12,6.16,6.20,6.22,6.29,6.34,6.38,6.43,6.46,6.50,6.56,6.62,6.67,6.71,6.77,6.82,6.86,6.88,6.93,6.98,6.99,7.00,7.01,7.02,7.03,7.00,6.97,6.95,6.93,6.82,6.75,6.69,6.61,6.52,6.43,6.35,6.26,6.16,6.05,5.97,5.91,5.81,5.72,5.64,5.59,5.52,5.45,5.41,5.37,5.33,5.28,5.24,5.23,5.22,5.17,5.15,5.15,5.14,5.12,5.10,5.10,5.11,5.10,5.08,5.08,5.09,5.08,5.07,5.07,5.09,5.08,5.07,5.08,5.09,5.09,5.07,5.06,5.08,5.09,5.08,5.08,5.07,5.08,5.07,5.05,5.06,5.07,5.06,5.04,5.03,5.05,5.03,5.00,5.01,5.03,5.02,4.99,4.98,4.98,4.98,4.96,4.96,4.97,4.97,4.94,4.93,4.94,4.94,4.93,4.92,4.92,4.93,4.92,4.90,4.90,4.92,4.90,4.88,4.89,4.91,4.90,4.88,4.88,4.89,4.89,4.87,4.87,4.88,4.89,4.87,4.87,4.88,4.88,4.87,4.85,4.87,4.89,4.88
4.88,4.90,4.90,4.90,4.89,4.93,4.97,5.19,5.71,5.88,5.55,5.37,5.30,5.23,5.14,5.10,4.71,4.35,3.94,3.53,3.09,2.75,2.51,2.35,2.22,2.07,1.96,1.92,1.88,1.83,1.83,1.82,1.82,1.83,1.86,1.94,2.06,2.24,2.43,2.68,2.76,3.33,3.68,4.01,4.35,4.63,4.89,5.13,5.35,5.53,5.64,5.73,5.81,5.86,5.90,5.95,6.02,6.06,6.08,6.15,6.20,6.25,6.28,6.34,6.40,6.42,6.49,6.54,6.59,6.66,6.69,6.72,6.77,6.83,6.85,6.89,6.94,6.96,6.97,6.97,6.99,7.00,6.98,6.94,6.91,6.88,6.80,6.73,6.66,6.58,6.56,6.38,6.28,6.20,6.11,6.00,5.92,5.84,5.76,5.67,5.59,5.54,5.49,5.42,5.36,5.32,5.28,5.24,5.20,5.18,5.15,5.13,5.09,5.08,5.08,5.07,5.03,5.02,5.03,5.03,5.01,4.99,5.00,5.00,5.01,4.99,4.99,5.00,4.99,4.98,4.99,5.00,5.00,4.98,4.99,5.00,4.99,4.99,4.99,5.00,5.00,4.98,4.98,4.99,4.98,4.97,4.96,4.97,4.97,4.97,4.93,4.94,4.95,4.95,4.93,4.92,4.94,4.93,4.90,4.89,4.91,4.91,4.88,4.87,4.88,4.89,4.87,4.87,4.87,4.87,4.86,4.85,4.85,4.86,4.84,4.83,4.84,4.85,4.85,4.83,4.84,4.85,4.84,4.82,4.82,4.84,4.82,4.82,4.82,4.82,4.83,4.82,4.82,4.84,4.83,4.81,4.83,4.84,4.85,4.87,4.88,4.90,4.94,5.07,5.48,5.83,5.64,5.36,5.28,5.23
5.15,5.06,4.90,4.69,4.42,4.32,3.77,3.44,3.16,2.91,2.67,2.52,2.38,2.20,2.04,1.96,1.94,1.91,1.88,1.86,1.86,1.85,1.87,1.88,1.97,2.08,2.24,2.40,2.59,2.82,2.90,3.42,3.74,4.05,4.36,4.62,4.86,5.08,5.27,5.44,5.55,5.64,5.70,5.75,5.78,5.84,5.90,5.94,5.97,6.02,6.07,6.12,6.16,6.19,6.25,6.27,6.34,6.39,6.44,6.49,6.52,6.56,6.62,6.65,6.68,6.72,6.76,6.80,6.82,6.83,6.86,6.87,6.88,6.86,6.84,6.81,6.78,6.71,6.66,6.60,6.58,6.44,6.35,6.29,6.21,6.11,6.01,5.94,5.86,5.77,5.69,5.63,5.57,5.50,5.44,5.39,5.35,5.32,5.26,5.22,5.20,5.18,5.14,5.12,5.12,5.11,5.06,5.05,5.05,5.03,5.02,5.02,5.03,5.02,5.02,5.00,5.01,5.01,5.02,5.00,5.01,5.02,5.02,5.01,5.02,5.03,5.03,5.02,5.02,5.04,5.04,5.03,5.02,5.04,5.04,5.02,5.02,5.03,5.02,5.02,5.00,5.00,5.01,5.00,4.98,4.98,4.99,4.98,4.97,4.96,4.96,4.95,4.94,4.94,4.94,4.94,4.92,4.91,4.92,4.92,4.90,4.89,4.91,4.90,4.90,4.87,4.89,4.89,4.88,4.87,4.87,4.88,4.88,4.86,4.86,4.87,4.87,4.86,4.86,4.88,4.87,4.87,4.87,4.89,4.90,4.89,4.90,4.93,4.93,4.93,4.90,4.90,4.91,4.91,4.95,5.15,5.60,5.81,5.51,5.29,5.25,5.19,5.13,5.08,4.99,4.94,4.47,4.11,3.77,3.41
3.09,2.87,2.69,2.56,2.40,2.25,2.13,2.08,2.03,1.99,1.97,1.95,1.92,1.89,1.89,1.91,1.93,1.99,2.09,2.23,2.28,2.54,2.75,3.04,3.36,3.66,3.98,4.31,4.59,4.84,5.04,5.25,5.45,5.60,5.68,5.77,5.83,5.89,5.93,5.98,6.04,6.09,6.12,6.17,6.22,6.24,6.31,6.35,6.40,6.46,6.50,6.54,6.61,6.67,6.70,6.73,6.78,6.84,6.88,6.90,6.95,6.99,7.02,7.01,7.04,7.05,7.04,7.02,7.00,6.98,6.96,6.87,6.81,6.77,6.69,6.59,6.51,6.44,6.35,6.26,6.16,6.08,6.01,5.91,5.82,5.75,5.69,5.61,5.53,5.49,5.45,5.38,5.32,5.29,5.26,5.26,5.19,5.17,5.16,5.14,5.11,5.10,5.10,5.08,5.07,5.04,5.05,5.06,5.05,5.03,5.03,5.04,5.04,5.01,5.01,5.03,5.04,5.01,5.02,5.03,5.04,5.02,5.02,5.04,5.04,5.03,5.03,5.03,5.05,5.04,5.03,5.03,5.05,5.03,5.02,5.01,5.04,5.02,5.00,5.01,5.01,5.01,4.99,4.99,4.99,4.99,4.97,4.96,4.98,4.97,4.95,4.94,4.95,4.95,4.94,4.93,4.94,4.95,4.94,4.92,4.93,4.93,4.92,4.91,4.91,4.92,4.92,4.90,4.90,4.91,4.92,4.90,4.89,4.90,4.91,4.90,4.89,4.89,4.90,4.89,4.87,4.89,4.89,4.89,4.87,4.88,4.90,4.89,4.87,4.88,4.90,4.89,4.87,4.88,4.89,4.90,4.90,4.93,5.02,5.32,5.78,5.86,5.55,5.38,5.31,5.25,5.21,5.17,5.08,4.90
4.67,4.42,4.08,3.75,3.42,3.13,2.90,2.69,2.54,2.42,2.37,2.12,2.03,2.00,1.96,1.91,1.89,1.89,1.89,1.89,1.88,1.90,1.94,2.00,2.08,2.23,2.41,2.62,2.87,3.19,3.50,3.79,4.07,4.36,4.64,4.72,5.07,5.29,5.48,5.62,5.72,5.79,5.83,5.90,5.93,5.96,6.00,6.05,6.06,6.08,6.12,6.16,6.18,6.20,6.24,6.30,6.33,6.36,6.40,6.44,6.45,6.52,6.56,6.61,6.66,6.69,6.72,6.77,6.81,6.83,6.86,6.90,6.93,6.95,6.95,6.97,6.98,6.96,6.93,6.91,6.90,6.84,6.77,6.72,6.64,6.62,6.46,6.37,6.28,6.19,6.08,5.99,5.92,5.83,5.75,5.68,5.62,5.57,5.50,5.44,5.41,5.37,5.34,5.28,5.26,5.25,5.22,5.18,5.16,5.16,5.15,5.12,5.11,5.13,5.12,5.11,5.11,5.11,5.11,5.11,5.08,5.10,5.10,5.10,5.08,5.10,5.12,5.11,5.10,5.09,5.10,5.10,5.08,5.08,5.09,5.09,5.08,5.07,5.08,5.08,5.06,5.05,5.06,5.05,5.02,5.03,5.03,5.03,5.01,4.99,5.00,4.99,4.98,4.97,4.97,4.97,4.96,4.95,4.95,4.95,4.96,4.93,4.93,4.94,4.94,4.92,4.90,4.93,4.93,4.91,4.91,4.91,4.91,4.91,4.89,4.90,4.92,4.90,4.88,4.90,4.90,4.91,4.89,4.88,4.89,4.90,4.89,4.88,4.90,4.90,4.89,4.88,4.90,4.90,4.89,4.88,4.89,4.91,4.91,4.90,4.92,4.94,4.97,5.08,5.52,5.95,5.81,5.49,5.38,5.32
5.30,5.18,5.08,4.93,4.69,4.36,4.01,3.68,3.34,3.05,2.80,2.62,2.49,2.35,2.18,2.08,2.05,2.00,1.96,1.94,1.94,1.93,1.91,1.94,1.96,1.97,2.06,2.17,2.34,2.53,2.76,3.03,3.35,3.69,4.00,4.31,4.63,4.88,5.08,5.27,5.46,5.60,5.67,5.72,5.77,5.82,5.86,5.90,5.93,5.98,6.00,6.03,6.05,6.10,6.13,6.15,6.18,6.23,6.27,6.29,6.31,6.35,6.41,6.44,6.45,6.51,6.55,6.58,6.61,6.65,6.70,6.72,6.74,6.77,6.80,6.80,6.81,6.82,6.82,6.81,6.76,6.72,6.68,6.63,6.55,6.46,6.38,6.31,6.22,6.12,6.05,5.97,5.89,5.81,5.73,5.68,5.62,5.54,5.49,5.45,5.43,5.35,5.31,5.29,5.27,5.23,5.21,5.20,5.19,5.16,5.15,5.15,5.15,5.14,5.11,5.12,5.12,5.13,5.11,5.12,5.13,5.12,5.12,5.12,5.12,5.12,5.11,5.11,5.12,5.13,5.11,5.11,5.12,5.12,5.11,5.09,5.11,5.11,5.11,5.09,5.10,5.09,5.09,5.07,5.08,5.08,5.07,5.05,5.05,5.05,5.04,5.03,5.02,5.03,5.02,5.01,5.00,5.00,5.01,5.00,4.98,4.99,4.99,4.98,4.97,4.97,4.98,4.98,4.97,4.96,4.97,4.97,4.96,4.94,4.96,4.96,4.95,4.93,4.94,4.95,4.93,4.93,4.94,4.95,4.93,4.92,4.94,4.94,4.93,4.92,4.93,4.95,4.95,4.93,4.93,4.95,4.94,4.92,4.93,4.96,4.97,4.97,5.06,5.43,5.89,5.81,5.49,5.39,5.37,5.31
5.24,5.14,4.98,4.70,4.36,4.04,3.70,3.37,3.09,2.87,2.71,2.57,2.41,2.26,2.16,2.13,2.06,2.02,2.00,1.98,1.96,1.96,1.98,2.00,2.03,2.14,2.30,2.48,2.70,2.99,3.32,3.66,3.98,4.27,4.58,4.85,5.08,5.27,5.47,5.63,5.67,5.80,5.86,5.92,5.97,6.01,6.05,6.10,6.14,6.17,6.21,6.26,6.30,6.33,6.36,6.41,6.45,6.47,6.49,6.53,6.57,6.59,6.61,6.64,6.68,6.69,6.75,6.78,6.81,6.86,6.88,6.90,6.93,6.94,6.94,6.92,6.91,6.89,6.84,6.78,6.74,6.68,6.61,6.52,6.44,6.37,6.28,6.17,6.09,6.01,5.98,5.84,5.76,5.69,5.63,5.55,5.49,5.44,5.40,5.36,5.32,5.30,5.28,5.23,5.21,5.21,5.20,5.18,5.15,5.15,5.15,5.16,5.14,5.15,5.14,5.14,5.13,5.13,5.13,5.15,5.13,5.14,5.14,5.15,5.14,5.13,5.13,5.14,5.14,5.12,5.13,5.14,5.14,5.12,5.12,5.13,5.13,5.10,5.10,5.12,5.11,5.09,5.08,5.10,5.08,5.08,5.07,5.07,5.06,5.05,5.04,5.05,5.04,5.03,5.01,5.01,5.02,5.01,4.99,4.99,5.00,4.99,4.97,4.97,4.99,4.98,4.96,4.95,4.96,4.96,4.95,4.94,4.97,4.96,4.94,4.93,4.94,4.95,4.94,4.93,4.93,4.94,4.93,4.92,4.93,4.94,4.94,4.92,4.92,4.93,4.93,4.92,4.92,4.93,4.94,4.93,4.93,4.93,4.93,4.93,4.92,4.94,4.97,5.01,5.20,5.64,5.88,5.60,5.36,5.30
5.22,5.12,4.96,4.78,4.57,4.49,4.01,3.77,3.59,3.41,3.17,2.89,2.67,2.52,2.36,2.23,2.13,2.07,2.02,1.98,1.97,1.96,1.97,1.96,1.98,2.05,2.13,2.25,2.42,2.65,2.73,3.22,3.57,3.93,4.24,4.49,4.78,5.03,5.27,5.46,5.61,5.73,5.80,5.85,5.89,5.94,5.98,6.01,6.03,6.08,6.13,6.15,6.17,6.19,6.24,6.26,6.29,6.33,6.37,6.41,6.44,6.48,6.54,6.58,6.63,6.66,6.71,6.75,6.75,6.78,6.81,6.84,6.87,6.87,6.87,6.88,6.87,6.84,6.81,6.80,6.79,6.72,6.68,6.63,6.57,6.49,6.40,6.32,6.23,6.13,6.04,5.96,5.88,5.78,5.70,5.64,5.58,5.51,5.45,5.40,5.37,5.33,5.28,5.25,5.23,5.22,5.17,5.16,5.16,5.15,5.13,5.12,5.12,5.13,5.12,5.10,5.11,5.12,5.11,5.10,5.11,5.12,5.13,5.12,5.12,5.13,5.14,5.12,5.11,5.12,5.12,5.11,5.11,5.12,5.12,5.10,5.09,5.10,5.10,5.09,5.07,5.08,5.07,5.07,5.04,5.05,5.05,5.04,5.02,5.01,5.02,5.02,4.99,5.00,5.00,4.99,4.97,4.96,4.98,4.97,4.96,4.95,4.96,4.95,4.93,4.93,4.94,4.94,4.93,4.92,4.92,4.94,4.93,4.92,4.92,4.93,4.93,4.91,4.91,4.92,4.94,4.91,4.90,4.91,4.91,4.91,4.90,4.92,4.91,4.91,4.90,4.91,4.91,4.91,4.90,4.91,4.93,4.94,4.98,5.32,5.79,5.73,5.40,5.27,5.21,5.19,4.95,4.75,4.51,4.22
3.91,3.62,3.40,3.18,2.93,2.63,2.45,2.32,2.18,2.07,2.03,2.01,1.97,1.94,1.94,1.95,1.96,1.96,2.01,2.12,2.16,2.44,2.69,2.98,3.32,3.66,4.02,4.35,4.67,4.94,5.17,5.42,5.58,5.68,5.75,5.82,5.87,5.91,5.94,5.98,6.02,6.05,6.08,6.12,6.16,6.17,6.20,6.24,6.27,6.30,6.33,6.36,6.41,6.45,6.49,6.52,6.57,6.61,6.64,6.66,6.70,6.74,6.77,6.78,6.79,6.81,6.81,6.79,6.78,6.76,6.75,6.66,6.61,6.55,6.47,6.39,6.29,6.22,6.14,6.02,5.93,5.85,5.78,5.69,5.60,5.55,5.49,5.43,5.36,5.32,5.29,5.26,5.22,5.20,5.21,5.20,5.16,5.15,5.17,5.16,5.15,5.14,5.14,5.15,5.15,5.12,5.13,5.12,5.11,5.08,5.08,5.07,5.07,5.04,5.04,5.04,5.04,5.04,5.06,5.07,5.07,5.05,5.05,5.06,5.06,5.04,5.03,5.05,5.04,5.03,5.01,5.02,5.02,4.99,4.99,4.99,5.00,4.97,4.96,4.95,4.95,4.95,4.94,4.93,4.95,4.95,4.94,4.94,4.93,4.95,4.93,4.92,4.94,4.94,4.94,4.93,4.93,4.93,4.93,4.91,4.92,4.93,4.93,4.91,4.93,4.94,4.93,4.92,4.92,4.93,4.94,4.92,4.91,4.92,4.93,4.92,4.92,4.94,4.94,4.94,4.92,4.94,4.94,4.95,4.96,5.08,5.46,5.90,5.77,5.47,5.39,5.33,5.23,5.12,4.97,4.90,4.37,4.02,3.67,3.33,3.06,2.84,2.69,2.60,2.45,2.29,2.21,2.18,2.13,2.09
2.07,2.05,2.04,2.03,2.06,2.13,2.24,2.37,2.55,2.77,2.84,3.28,3.60,3.90,4.18,4.46,4.73,4.98,5.18,5.36,5.52,5.67,5.72,5.77,5.81,5.86,5.91,5.95,5.98,6.03,6.08,6.11,6.14,6.19,6.25,6.27,6.33,6.38,6.45,6.50,6.54,6.59,6.65,6.70,6.73,6.77,6.83,6.86,6.88,6.89,6.93,6.94,6.95,6.92,6.91,6.89,6.85,6.79,6.72,6.67,6.65,6.50,6.43,6.36,6.28,6.17,6.09,6.01,5.93,5.83,5.76,5.69,5.63,5.56,5.50,5.46,5.43,5.38,5.32,5.30,5.28,5.24,5.22,5.19,5.19,5.19,5.15,5.15,5.15,5.15,5.13,5.12,5.13,5.12,5.11,5.10,5.11,5.12,5.12,5.11,5.12,5.13,5.13,5.10,5.11,5.12,5.12,5.11,5.12,5.12,5.12,5.11,5.11,5.13,5.12,5.10,5.09,5.10,5.10,5.09,5.07,5.08,5.08,5.07,5.07,5.08,5.10,5.09,5.07,5.08,5.09,5.08,5.06,5.07,5.07,5.08,5.04,5.02,5.02,5.01,4.99,4.97,4.95,4.95,4.93,4.91,4.91,4.91,4.92,4.92,4.94,4.95,4.94,4.93,4.93,4.95,4.94,4.94,4.94,4.94,4.94,4.93,4.93,4.93,4.94,4.92,4.92,4.95,4.95,4.95,4.93,4.95,4.96,4.98,5.07,5.46,5.85,5.68,5.41,5.36,5.33,5.29,5.24,5.18,5.07,5.02,4.58,4.27,3.96,3.61,3.30,3.08,2.91,2.77,2.64,2.48,2.35,2.25,2.18,2.13,2.09,2.06,2.04,2.02,2.03,2.05,2.08,2.15,2.27,2.42
2.47,2.79,3.04,3.34,3.66,3.94,4.24,4.53,4.80,5.01,5.22,5.42,5.60,5.72,5.81,5.88,5.95,6.00,6.05,6.10,6.16,6.20,6.24,6.29,6.37,6.39,6.45,6.51,6.57,6.62,6.66,6.72,6.78,6.83,6.87,6.91,6.96,7.00,7.02,7.04,7.07,7.09,7.09,7.09,7.07,7.07,7.04,6.99,6.94,6.90,6.88,6.74,6.67,6.59,6.50,6.39,6.30,6.22,6.13,6.04,5.94,5.87,5.78,5.71,5.63,5.58,5.51,5.47,5.40,5.38,5.34,5.31,5.27,5.24,5.24,5.23,5.19,5.17,5.18,5.17,5.14,5.12,5.12,5.12,5.11,5.10,5.11,5.11,5.11,5.08,5.10,5.11,5.10,5.09,5.11,5.11,5.10,5.11,5.11,5.13,5.13,5.12,5.12,5.13,5.13,5.12,5.12,5.13,5.12,5.11,5.10,5.11,5.10,5.10,5.08,5.09,5.08,5.07,5.05,5.05,5.06,5.04,5.03,5.05,5.04,5.03,5.02,5.01,5.01,5.01,4.99,4.99,4.99,5.00,4.98,4.97,4.98,4.98,4.97,4.95,4.97,4.97,4.96,4.95,4.95,4.97,4.95,4.94,4.94,4.96,4.97,4.95,4.97,4.99,5.00,4.98,5.00,5.01,5.01,4.99,4.98,5.01,4.99,4.99,4.97,4.97,4.96,4.95,4.95,5.02,5.28,5.69,5.70,5.44,5.32,5.31,5.24,5.20,5.14,5.02,4.82,4.54,4.23,3.92,3.56,3.24,3.01,2.83,2.68,2.55,2.43,2.31,2.23,2.17,2.15,2.13,2.09,2.06,2.06,2.05,2.05,2.05,2.08,2.16,2.26,2.39,2.54,2.72,2.93,3.20
3.49,3.79,4.09,4.37,4.64,4.91,5.13,5.32,5.49,5.64,5.74,5.81,5.86,5.92,5.97,5.99,6.06,6.12,6.17,6.21,6.25,6.29,6.35,6.40,6.42,6.47,6.53,6.58,6.61,6.64,6.72,6.76,6.79,6.82,6.87,6.92,6.94,6.95,6.99,7.01,7.02,7.02,7.01,7.01,6.99,6.94,6.90,6.86,6.80,6.72,6.64,6.57,6.50,6.41,6.31,6.23,6.14,6.06,5.97,5.90,5.83,5.74,5.67,5.60,5.55,5.53,5.42,5.39,5.35,5.30,5.26,5.23,5.22,5.19,5.17,5.15,5.13,5.12,5.11,5.09,5.09,5.08,5.07,5.05,5.06,5.07,5.06,5.04,5.04,5.04,5.05,5.03,5.04,5.05,5.06,5.04,5.04,5.05,5.06,5.05,5.04,5.06,5.07,5.05,5.05,5.06,5.07,5.05,5.05,5.05,5.06,5.05,5.04,5.05,5.04,5.05,5.03,5.03,5.04,5.03,5.02,5.00,5.01,5.00,4.99,4.97,4.99,4.99,4.98,4.97,4.97,4.98,4.96,4.96,4.96,4.96,4.96,4.94,4.95,4.95,4.95,4.94,4.93,4.94,4.94,4.93,4.91,4.94,4.93,4.92,4.91,4.93,4.93,4.92,4.92,4.92,4.93,4.92,4.91,4.91,4.93,4.93,4.91,4.91,4.92,4.92,4.91,4.90,4.92,4.92,4.91,4.91,4.93,4.94,4.94,4.95,5.07,5.41,5.80,5.71,5.46,5.35,5.31,5.23,5.20,5.12,4.97,4.78,4.55,4.26,4.16,3.61,3.32,3.08,2.86,2.68,2.55,2.43,2.30,2.19,2.14,2.12,2.10,2.06,2.05,2.05,2.06,2.05,2.05,2.09
2.15,2.23,2.35,2.53,2.74,2.81,3.28,3.59,3.89,4.17,4.45,4.71,4.93,5.11,5.28,5.46,5.60,5.68,5.73,5.77,5.82,5.86,5.88,5.90,5.94,5.98,5.99,6.01,6.05,6.08,6.09,6.12,6.16,6.21,6.24,6.26,6.30,6.34,6.38,6.40,6.43,6.48,6.52,6.56,6.58,6.63,6.66,6.69,6.71,6.74,6.78,6.78,6.80,6.80,6.81,6.80,6.77,6.73,6.71,6.66,6.59,6.53,6.48,6.39,6.30,6.22,6.13,6.05,5.96,5.88,5.81,5.74,5.67,5.61,5.55,5.51,5.46,5.41,5.37,5.35,5.34,5.27,5.25,5.24,5.21,5.20,5.18,5.19,5.18,5.17,5.16,5.17,5.16,5.15,5.16,5.15,5.15,5.15,5.15,5.15,5.16,5.16,5.14,5.15,5.16,5.15,5.13,5.14,5.15,5.14,5.14,5.12,5.14,5.13,5.11,5.11,5.11,5.11,5.09,5.09,5.09,5.08,5.08,5.06,5.06,5.06,5.05,5.04,5.04,5.03,5.04,5.01,5.01,5.02,5.01,5.00,5.00,5.02,5.00,4.99,4.99,4.99,4.99,4.98,4.97,4.98,4.99,4.99,4.98,4.98,4.99,4.98,4.96,4.97,4.97,4.98,4.96,4.96,4.97,4.98,4.95,4.97,4.98,4.98,4.97,4.95,4.96,4.96,4.96,4.96,4.97,4.96,4.96,4.96,4.97,4.98,4.98,4.97,4.99,5.03,5.05,5.51,5.90,5.78,5.52,5.40,5.37,5.35,5.28,5.21,5.06,4.87,4.59,4.27,3.95,3.63,3.34,3.07,2.85,2.71,2.59,2.41,2.27,2.22,2.18,2.17,2.11,2.10,2.10,2.10
2.10,2.10,2.15,2.21,2.32,2.47,2.66,2.89,3.16,3.48,3.80,4.11,4.40,4.68,4.95,5.17,5.36,5.54,5.70,5.80,5.82,5.89,5.95,5.99,6.01,6.03,6.05,6.08,6.11,6.13,6.15,6.20,6.23,6.29,6.32,6.36,6.39,6.43,6.45,6.50,6.54,6.58,6.60,6.66,6.70,6.71,6.76,6.78,6.82,6.85,6.86,6.88,6.92,6.92,6.90,6.89,6.88,6.86,6.81,6.75,6.70,6.65,6.56,6.48,6.40,6.30,6.21,6.12,6.04,5.95,5.92,5.78,5.71,5.65,5.58,5.53,5.47,5.43,5.40,5.35,5.32,5.31,5.28,5.27,5.24,5.22,5.22,5.22,5.20,5.19,5.20,5.19,5.18,5.20,5.19,5.20,5.18,5.19,5.20,5.19,5.19,5.18,5.19,5.19,5.18,5.18,5.19,5.19,5.17,5.16,5.17,5.17,5.16,5.15,5.14,5.15,5.14,5.13,5.13,5.12,5.12,5.09,5.09,5.09,5.09,5.06,5.05,5.07,5.06,5.04,5.04,5.03,5.05,5.03,5.01,5.02,5.02,5.01,5.00,5.01,5.00,5.01,4.99,5.00,5.01,5.00,4.99,4.99,5.00,4.99,4.97,4.98,4.99,4.98,4.97,4.97,4.98,4.98,4.97,4.98,4.97,4.97,4.97,4.97,4.97,4.98,4.97,4.96,4.97,4.98,4.98,4.96,4.97,4.97,4.98,4.98,5.01,5.11,5.40,5.76,5.68,5.45,5.34,5.27,5.16,5.05,4.86,4.62,4.35,4.08,3.82,3.58,3.36,3.12,2.87,2.79,2.51,2.37,2.29,2.22,2.17,2.14,2.14,2.13,2.12,2.13,2.17,2.21,2.30,2.44
2.64,2.88,3.18,3.51,3.85,4.17,4.46,4.73,4.98,5.20,5.27,5.56,5.68,5.77,5.83,5.87,5.92,5.96,6.00,6.03,6.08,6.13,6.17,6.20,6.23,6.28,6.32,6.35,6.37,6.43,6.47,6.51,6.53,6.57,6.61,6.63,6.66,6.70,6.73,6.75,6.77,6.79,6.83,6.84,6.84,6.86,6.90,6.89,6.87,6.84,6.82,6.78,6.72,6.66,6.61,6.54,6.45,6.37,6.28,6.21,6.18,6.03,5.95,5.87,5.80,5.71,5.63,5.57,5.51,5.45,5.40,5.37,5.34,5.29,5.26,5.25,5.23,5.20,5.18,5.17,5.18,5.17,5.15,5.16,5.17,5.16,5.15,5.15,5.16,5.16,5.15,5.15,5.17,5.16,5.15,5.14,5.16,5.16,5.16,5.14,5.16,5.16,5.15,5.14,5.14,5.15,5.12,5.11,5.12,5.12,5.12,5.11,5.10,5.11,5.10,5.08,5.07,5.07,5.07,5.06,5.04,5.05,5.05,5.03,5.01,5.02,5.03,5.01,5.00,5.01,5.02,5.00,4.99,5.00,5.00,4.99,4.97,4.99,5.00,4.98,4.96,4.97,4.97,4.97,4.97,4.96,4.97,4.97,4.96,4.95,4.96,4.96,4.96,4.95,4.96,4.96,4.94,4.95,4.95,4.96,4.96,4.94,4.95,4.95,4.96,4.95,4.94,4.96,4.95,4.95,4.94,4.96,4.97,4.98,5.04,5.32,5.76,5.76,5.46,5.33,5.27,5.17,5.03,4.87,4.67,4.59,4.09,3.83,3.61,3.40,3.16,2.89,2.66,2.51,2.36,2.26,2.20,2.16,2.13,2.10,2.10,2.10,2.10,2.10,2.13,2.20,2.30,2.44,2.66,2.93
3.03,3.57,3.90,4.20,4.47,4.71,4.94,5.16,5.35,5.52,5.63,5.73,5.79,5.83,5.87,5.93,5.97,5.99,6.02,6.05,6.08,6.11,6.12,6.15,6.19,6.21,6.24,6.28,6.31,6.36,6.38,6.43,6.48,6.52,6.55,6.60,6.65,6.68,6.70,6.72,6.77,6.80,6.80,6.80,6.82,6.81,6.79,6.76,6.75,6.72,6.71,6.63,6.61,6.56,6.49,6.41,6.34,6.27,6.18,6.08,6.00,5.93,5.85,5.77,5.69,5.63,5.57,5.51,5.44,5.41,5.37,5.32,5.28,5.26,5.25,5.24,5.19,5.18,5.18,5.17,5.15,5.15,5.16,5.16,5.15,5.15,5.17,5.15,5.15,5.15,5.16,5.16,5.16,5.16,5.17,5.17,5.18,5.16,5.16,5.18,5.17,5.16,5.15,5.16,5.15,5.13,5.13,5.14,5.14,5.12,5.10,5.12,5.11,5.09,5.09,5.08,5.09,5.07,5.07,5.07,5.07,5.06,5.04,5.05,5.04,5.04,5.03,5.03,5.03,5.04,5.02,5.01,5.03,5.02,5.01,5.00,5.00,5.01,5.00,4.99,5.01,5.01,5.00,5.00,4.98,4.99,4.99,4.98,4.98,4.99,5.00,4.98,4.98,5.00,4.99,4.98,4.97,4.98,5.00,4.98,4.98,4.98,4.99,4.98,4.99,5.01,5.05,5.21,5.65,5.98,5.73,5.47,5.40,5.37,5.31,5.29,5.10,4.91,4.65,4.33,3.97,3.60,3.30,3.03,2.81,2.67,2.54,2.39,2.27,2.22,2.19,2.17,2.15,2.13,2.14,2.14,2.15,2.17,2.24,2.36,2.41,2.72,2.96,3.27,3.57,3.86,4.14,4.44,4.70,4.90
5.10,5.29,5.46,5.60,5.71,5.79,5.86,5.87,5.91,5.96,6.00,6.02,6.05,6.08,6.11,6.12,6.16,6.20,6.24,6.27,6.29,6.33,6.38,6.41,6.45,6.49,6.54,6.59,6.64,6.68,6.73,6.78,6.80,6.83,6.87,6.89,6.88,6.88,6.89,6.89,6.87,6.82,6.78,6.74,6.69,6.62,6.54,6.49,6.42,6.34,6.25,6.17,6.09,5.99,5.90,5.84,5.77,5.69,5.61,5.57,5.51,5.46,5.41,5.39,5.36,5.35,5.31,5.30,5.29,5.27,5.25,5.25,5.25,5.24,5.24,5.23,5.23,5.23,5.24,5.22,5.24,5.25,5.24,5.23,5.24,5.24,5.25,5.23,5.25,5.25,5.25,5.24,5.24,5.24,5.24,5.21,5.21,5.22,5.21,5.19,5.18,5.19,5.18,5.17,5.16,5.16,5.16,5.15,5.13,5.15,5.14,5.13,5.11,5.11,5.12,5.12,5.09,5.09,5.11,5.09,5.07,5.08,5.08,5.08,5.07,5.06,5.08,5.08,5.07,5.06,5.06,5.06,5.06,5.05,5.06,5.06,5.06,5.04,5.04,5.06,5.06,5.04,5.04,5.05,5.05,5.04,5.04,5.06,5.06,5.05,5.04,5.06,5.06,5.06,5.09,5.25,5.67,6.02,5.80,5.53,5.45,5.40,5.33,5.27,5.16,5.11,4.73,4.42,4.11,3.76,3.41,3.13,2.93,2.75,2.60,2.46,2.34,2.28,2.23,2.19,2.18,2.17,2.15,2.14,2.15,2.17,2.19,2.25,2.35,2.50,2.56,2.90,3.22,3.55,3.87,4.15,4.45,4.73,4.97,5.16,5.36,5.55,5.71,5.80,5.87,5.94,5.98,6.02,6.04,6.09
6.14,6.16,6.20,6.23,6.28,6.29,6.34,6.37,6.42,6.44,6.48,6.52,6.57,6.61,6.63,6.68,6.74,6.78,6.82,6.85,6.90,6.94,6.96,6.98,7.02,7.03,7.05,7.02,7.01,7.00,6.99,6.90,6.84,6.79,6.71,6.62,6.52,6.44,6.34,6.24,6.14,6.07,5.98,5.88,5.81,5.74,5.68,5.60,5.54,5.50,5.46,5.42,5.37,5.35,5.33,5.32,5.27,5.26,5.26,5.24,5.23,5.22,5.23,5.23,5.22,5.21,5.22,5.22,5.22,5.22,5.24,5.26,5.26,5.24,5.27,5.27,5.27,5.26,5.27,5.27,5.27,5.23,5.22,5.21,5.19,5.16,5.15,5.16,5.14,5.13,5.12,5.12,5.14,5.13,5.12,5.12,5.11,5.11,5.09,5.09,5.10,5.09,5.08,5.08,5.08,5.08,5.06,5.06,5.07,5.07,5.04,5.04,5.06,5.04,5.03,5.03,5.05,5.06,5.03,5.03,5.04,5.04,5.04,5.03,5.04,5.04,5.04,5.03,5.04,5.04,5.04,5.02,5.03,5.05,5.04,5.04,5.03,5.05,5.05,5.04,5.03,5.04,5.04,5.03,5.04,5.05,5.05,5.05,5.04,5.10,5.19,5.52,5.96,5.97,5.64,5.56,5.41,5.37,5.32,5.22,5.05,4.84,4.57,4.23,3.87,3.53,3.22,2.98,2.80,2.68,2.61,2.55,2.44,2.33,2.28,2.26,2.22,2.18,2.18,2.17,2.16,2.17,2.17,2.21,2.27,2.35,2.48,2.64,2.82,2.99,3.27,3.56,3.85,4.13,4.42,4.70,4.95,5.16,5.34,5.53,5.69,5.80,5.89,5.94,6.01,6.03,6.09,6.15,6.20,6.25
6.27,6.33,6.38,6.42,6.45,6.51,6.57,6.63,6.67,6.72,6.77,6.84,6.88,6.91,6.97,7.02,7.05,7.08,7.12,7.16,7.17,7.17,7.16,7.17,7.16,7.12,7.08,7.04,6.97,6.90,6.83,6.77,6.70,6.59,6.50,6.43,6.35,6.23,6.14,6.06,5.98,5.90,5.81,5.74,5.69,5.66,5.56,5.52,5.49,5.45,5.40,5.37,5.35,5.33,5.30,5.27,5.27,5.26,5.24,5.22,5.23,5.22,5.21,5.19,5.19,5.20,5.19,5.18,5.17,5.19,5.19,5.18,5.18,5.19,5.20,5.17,5.18,5.19,5.19,5.18,5.18,5.19,5.21,5.19,5.18,5.19,5.20,5.18,5.18,5.19,5.19,5.19,5.17,5.17,5.18,5.17,5.15,5.15,5.14,5.13,5.12,5.13,5.12,5.13,5.11,5.11,5.11,5.12,5.10,5.10,5.11,5.12,5.13,5.12,5.13,5.14,5.14,5.13,5.12,5.14,5.13,5.12,5.11,5.11,5.10,5.07,5.07,5.07,5.05,5.03,5.02,5.02,5.01,4.99,5.00,5.02,5.06,5.04,5.02,5.04,5.04,5.02,5.02,5.04,5.05,5.04,5.03,5.04,5.05,5.06,5.07,5.16,5.45,5.89,6.01,5.73,5.55,5.49,5.43,5.41,5.38,5.33,5.22,5.08,4.88,4.65,4.39,4.11,3.85,3.61,3.53,3.21,3.07,2.95,2.81,2.64,2.51,2.44,2.38,2.31,2.26,2.24,2.21,2.19,2.18,2.19,2.22,2.27,2.36,2.50,2.66,2.85,3.03,3.27,3.55,3.64,4.11,4.37,4.63,4.87,5.08,5.28,5.45,5.61,5.74,5.83,5.91,5.95,6.00,6.05
6.10,6.14,6.17,6.20,6.26,6.30,6.35,6.39,6.45,6.50,6.52,6.57,6.63,6.68,6.72,6.77,6.82,6.87,6.91,6.94,6.97,7.02,7.05,7.06,7.07,7.08,7.08,7.05,7.04,7.02,6.99,6.92,6.86,6.79,6.73,6.71,6.56,6.48,6.40,6.31,6.21,6.11,6.05,5.97,5.88,5.81,5.76,5.70,5.65,5.59,5.55,5.51,5.46,5.42,5.40,5.37,5.34,5.31,5.29,5.28,5.27,5.23,5.24,5.24,5.23,5.20,5.20,5.21,5.19,5.18,5.18,5.18,5.18,5.18,5.16,5.18,5.18,5.18,5.17,5.19,5.19,5.18,5.18,5.19,5.20,5.20,5.18,5.20,5.22,5.21,5.20,5.20,5.21,5.21,5.19,5.20,5.20,5.20,5.19,5.18,5.19,5.19,5.18,5.16,5.17,5.16,5.15,5.15,5.15,5.14,5.15,5.13,5.13,5.14,5.12,5.11,5.10,5.11,5.11,5.09,5.08,5.10,5.10,5.09,5.08,5.09,5.09,5.09,5.08,5.07,5.08,5.07,5.07,5.07,5.07,5.07,5.06,5.06,5.07,5.07,5.06,5.05,5.08,5.07,5.05,5.06,5.08,5.07,5.06,5.06,5.08,5.10,5.11,5.10,5.13,5.14,5.14,5.14,5.22,5.50,5.63,6.06,5.77,5.58,5.52,5.45,5.40,5.36,5.25,5.08,4.85,4.57,4.25,3.91,3.56,3.30,3.08,2.87,2.75,2.64,2.53,2.40,2.31,2.26,2.25,2.23,2.19,2.18,2.17,2.17,2.16,2.18,2.22,2.28,2.38,2.51,2.68,2.85,3.05,3.33,3.64,3.90,4.14,4.41,4.70,4.94,5.15,5.35,5.54,5.70
5.74,5.86,5.93,5.99,6.02,6.06,6.11,6.15,6.19,6.22,6.26,6.33,6.37,6.40,6.43,6.49,6.53,6.58,6.62,6.66,6.71,6.75,6.78,6.84,6.89,6.90,6.94,6.99,7.02,7.04,7.04,7.07,7.10,7.08,7.06,7.04,7.03,7.00,6.94,6.87,6.82,6.74,6.65,6.57,6.49,6.39,6.28,6.18,6.11,6.02,5.99,5.84,5.77,5.72,5.65,5.60,5.54,5.51,5.46,5.43,5.38,5.38,5.35,5.32,5.30,5.30,5.27,5.26,5.25,5.24,5.24,5.23,5.22,5.23,5.23,5.22,5.22,5.22,5.23,5.24,5.22,5.22,5.24,5.25,5.23,5.23,5.24,5.25,5.24,5.24,5.25,5.25,5.24,5.24,5.23,5.24,5.23,5.22,5.22,5.22,5.22,5.21,5.20,5.21,5.19,5.18,5.18,5.18,5.17,5.16,5.15,5.17,5.16,5.14,5.13,5.14,5.13,5.12,5.11,5.12,5.12,5.10,5.10,5.11,5.11,5.12,5.10,5.10,5.10,5.09,5.08,5.08,5.10,5.10,5.09,5.08,5.09,5.09,5.08,5.06,5.08,5.08,5.08,5.06,5.07,5.08,5.07,5.06,5.06,5.08,5.08,5.06,5.06,5.08,5.08,5.07,5.07,5.11,5.10,5.11,5.27,5.67,6.05,5.91,5.60,5.49,5.44,5.37,5.30,5.23,5.08,4.84,4.53,4.21,3.87,3.75,3.23,3.00,2.83,2.69,2.54,2.40,2.32,2.26,2.21,2.18,2.18,2.16,2.15,2.14,2.17,2.18,2.19,2.25,2.37,2.53,2.73,3.00,3.33,3.68,3.79,4.30,4.61,4.90,5.13,5.33,5.54,5.73,5.82,5.88
5.93,6.00,6.03,6.07,6.11,6.15,6.19,6.21,6.23,6.28,6.33,6.35,6.38,6.43,6.48,6.48,6.54,6.59,6.64,6.68,6.71,6.77,6.83,6.86,6.89,6.94,6.99,7.02,7.03,7.05,7.08,7.08,7.07,7.05,7.02,6.99,6.93,6.87,6.81,6.73,6.70,6.53,6.44,6.35,6.23,6.13,6.03,5.96,5.86,5.76,5.70,5.65,5.58,5.52,5.48,5.45,5.40,5.38,5.35,5.33,5.33,5.30,5.29,5.28,5.29,5.28,5.26,5.26,5.27,5.26,5.25,5.26,5.27,5.26,5.25,5.25,5.26,5.25,5.24,5.25,5.26,5.26,5.24,5.23,5.24,5.25,5.25,5.23,5.23,5.24,5.24,5.21,5.22,5.22,5.20,5.19,5.18,5.18,5.17,5.14,5.15,5.16,5.14,5.14,5.13,5.13,5.13,5.12,5.11,5.12,5.11,5.11,5.10,5.11,5.11,5.11,5.09,5.09,5.10,5.09,5.07,5.08,5.08,5.08,5.07,5.07,5.08,5.08,5.07,5.05,5.07,5.07,5.06,5.05,5.07,5.07,5.07,5.05,5.06,5.07,5.07,5.06,5.06,5.07,5.06,5.05,5.05,5.07,5.07,5.07,5.09,5.17,5.48,5.93,5.87,5.57,5.46,5.42,5.35,5.27,5.15,4.92,4.63,4.29,3.97,3.86,3.26,3.01,2.81,2.67,2.53,2.39,2.30,2.24,2.20,2.18,2.17,2.16,2.15,2.14,2.16,2.20,2.27,2.40,2.62,2.84,3.11,3.47,3.84,4.18,4.28,4.78,5.03,5.26,5.44,5.60,5.72,5.81,5.85,5.88,5.94,6.00,6.03,6.07,6.10,6.14,6.16,6.19,6.22,6.26
6.30,6.31,6.34,6.38,6.43,6.44,6.49,6.53,6.58,6.62,6.65,6.70,6.75,6.79,6.80,6.84,6.89,6.89,6.90,6.91,6.92,6.93,6.88,6.83,6.80,6.76,6.69,6.62,6.54,6.47,6.43,6.27,6.19,6.10,6.01,5.92,5.84,5.79,5.71,5.62,5.58,5.54,5.49,5.43,5.41,5.38,5.36,5.32,5.31,5.29,5.29,5.27,5.25,5.26,5.25,5.24,5.23,5.24,5.25,5.24,5.23,5.23,5.23,5.23,5.22,5.22,5.23,5.23,5.22,5.21,5.23,5.23,5.23,5.21,5.21,5.22,5.21,5.21,5.21,5.21,5.21,5.19,5.19,5.20,5.20,5.19,5.18,5.18,5.16,5.16,5.14,5.15,5.13,5.12,5.11,5.13,5.13,5.11,5.10,5.11,5.12,5.09,5.08,5.09,5.09,5.09,5.06,5.08,5.09,5.08,5.07,5.07,5.09,5.08,5.06,5.06,5.06,5.06,5.06,5.05,5.07,5.06,5.06,5.05,5.06,5.06,5.06,5.05,5.05,5.07,5.06,5.05,5.05,5.06,5.05,5.04,5.05,5.06,5.05,5.05,5.05,5.07,5.08,5.12,5.30,5.78,6.04,5.76,5.51,5.47,5.43,5.37,5.31,5.21,5.02,4.94,4.42,4.11,3.78,3.46,3.19,2.97,2.81,2.68,2.52,2.39,2.30,2.25,2.20,2.18,2.18,2.17,2.16,2.15,2.17,2.19,2.23,2.33,2.50,2.70,2.76,3.18,3.51,3.84,4.15,4.48,4.78,5.05,5.25,5.45,5.61,5.77,5.85,5.91,5.96,6.03,6.08,6.12,6.15,6.20,6.25,6.27,6.30,6.33,6.38,6.39,6.43,6.46,6.50,6.52
6.54,6.58,6.62,6.64,6.66,6.70,6.75,6.78,6.81,6.86,6.91,6.95,6.96,6.97,6.99,6.99,6.98,6.96,6.95,6.92,6.90,6.81,6.75,6.70,6.61,6.53,6.46,6.38,6.28,6.17,6.07,6.00,5.90,5.80,5.72,5.66,5.61,5.54,5.50,5.45,5.41,5.37,5.33,5.31,5.30,5.29,5.25,5.25,5.25,5.23,5.22,5.21,5.23,5.22,5.21,5.21,5.23,5.22,5.22,5.22,5.23,5.23,5.22,5.21,5.22,5.23,5.22,5.20,5.22,5.22,5.22,5.20,5.21,5.21,5.20,5.18,5.17,5.18,5.18,5.15,5.15,5.16,5.15,5.13,5.11,5.12,5.12,5.11,5.10,5.10,5.10,5.08,5.07,5.08,5.08,5.07,5.05,5.06,5.07,5.05,5.05,5.05,5.06,5.05,5.04,5.04,5.05,5.04,5.04,5.02,5.04,5.04,5.02,5.01,5.03,5.02,5.03,5.02,5.02,5.03,5.02,5.01,5.01,5.02,5.02,5.01,5.01,5.04,5.02,5.01,5.01,5.02,5.03,5.02,5.03,5.13,5.36,5.80,5.93,5.63,5.42,5.34,5.25,5.13,4.96,4.89,4.44,4.18,3.94,3.73,3.53,3.31,3.07,2.79,2.61,2.48,2.39,2.29,2.21,2.19,2.17,2.15,2.14,2.13,2.15,2.16,2.19,2.25,2.39,2.58,2.64,3.07,3.41,3.76,4.08,4.36,4.65,4.93,5.16,5.37,5.57,5.72,5.79,5.84,5.89,5.96,6.00,6.02,6.06,6.10,6.15,6.15,6.18,6.22,6.25,6.26,6.29,6.33,6.37,6.40,6.43,6.49,6.52,6.55,6.59,6.64,6.69,6.73,6.75,6.80
6.85,6.88,6.91,6.92,6.95,6.96,6.95,6.93,6.93,6.89,6.87,6.78,6.70,6.62,6.53,6.43,6.34,6.27,6.17,6.06,5.96,5.89,5.80,5.72,5.64,5.59,5.52,5.46,5.40,5.37,5.34,5.30,5.27,5.24,5.24,5.22,5.19,5.18,5.19,5.17,5.17,5.17,5.18,5.17,5.17,5.16,5.17,5.17,5.16,5.16,5.17,5.18,5.18,5.16,5.17,5.18,5.17,5.15,5.16,5.17,5.16,5.15,5.15,5.15,5.13,5.12,5.11,5.13,5.11,5.10,5.09,5.10,5.10,5.09,5.07,5.08,5.07,5.06,5.05,5.05,5.05,5.05,5.03,5.04,5.04,5.04,5.03,5.03,5.04,5.02,5.01,5.01,5.03,5.02,5.00,5.00,5.03,5.02,5.00,5.00,5.02,5.01,5.00,5.00,5.00,5.02,5.01,4.99,4.99,5.01,5.00,4.98,4.99,5.00,5.00,4.99,4.99,5.01,5.00,5.00,4.99,5.00,5.00,5.00,5.01,5.07,5.22,5.64,5.95,5.76,5.49,5.39,5.31,5.23,5.11,5.06,4.69,4.44,4.15,3.85,3.60,3.38,3.17,2.92,2.68,2.51,2.40,2.31,2.22,2.15,2.15,2.13,2.11,2.11,2.11,2.10,2.11,2.12,2.19,2.29,2.33,2.64,2.88,3.18,3.50,3.82,4.15,4.45,4.72,4.96,5.19,5.41,5.58,5.68,5.75,5.82,5.86,5.90,5.95,5.99,6.02,6.05,6.07,6.11,6.14,6.15,6.18,6.22,6.26,6.29,6.32,6.36,6.41,6.44,6.46,6.50,6.55,6.58,6.61,6.64,6.68,6.72,6.75,6.77,6.81,6.83,6.83,6.82,6.84,6.84
6.83,6.77,6.73,6.69,6.62,6.56,6.50,6.44,6.36,6.26,6.16,6.07,5.98,5.87,5.79,5.71,5.62,5.54,5.46,5.42,5.38,5.32,5.29,5.27,5.27,5.27,5.22,5.21,5.21,5.19,5.17,5.17,5.18,5.18,5.16,5.15,5.17,5.16,5.15,5.15,5.17,5.17,5.17,5.16,5.18,5.18,5.17,5.17,5.17,5.18,5.18,5.16,5.17,5.19,5.16,5.14,5.15,5.16,5.14,5.13,5.12,5.14,5.14,5.13,5.11,5.12,5.11,5.10,5.09,5.09,5.10,5.08,5.07,5.08,5.09,5.08,5.07,5.06,5.08,5.06,5.06,5.04,5.06,5.05,5.04,5.04,5.05,5.05,5.04,5.04,5.06,5.05,5.04,5.03,5.04,5.06,5.03,5.04,5.04,5.04,5.04,5.03,5.03,5.04,5.03,5.03,5.03,5.05,5.03,5.02,5.02,5.03,5.03,5.03,5.02,5.04,5.04,5.01,5.02,5.03,5.03,5.02,5.02,5.04,5.06,5.06,5.16,5.44,5.87,5.91,5.61,5.47,5.43,5.37,5.32,5.25,5.17,4.99,4.74,4.45,4.17,3.85,3.51,3.24,3.04,2.85,2.68,2.56,2.43,2.32,2.29,2.20,2.18,2.17,2.14,2.13,2.13,2.15,2.14,2.15,2.19,2.28,2.41,2.57,2.77,3.03,3.36,3.67,3.98,4.30,4.61,4.86,5.08,5.29,5.47,5.53,5.75,5.82,5.88,5.92,5.96,6.01,6.06,6.08,6.11,6.13,6.18,6.21,6.22,6.26,6.31,6.35,6.38,6.40,6.47,6.51,6.54,6.58,6.63,6.68,6.69,6.75,6.80,6.85,6.88,6.91,6.94,6.96,6.97,6.97
6.97,6.98,6.95,6.92,6.87,6.83,6.76,6.67,6.59,6.51,6.42,6.32,6.22,6.14,6.04,6.01,5.86,5.79,5.72,5.64,5.57,5.52,5.48,5.43,5.37,5.35,5.33,5.30,5.27,5.24,5.24,5.24,5.22,5.21,5.20,5.20,5.19,5.19,5.19,5.20,5.19,5.18,5.19,5.19,5.19,5.19,5.19,5.20,5.19,5.18,5.19,5.20,5.20,5.19,5.20,5.20,5.19,5.21,5.20,5.21,5.22,5.21,5.21,5.21,5.22,5.21,5.19,5.20,5.20,5.19,5.17,5.16,5.16,5.12,5.10,5.09,5.09,5.08,5.05,5.03,5.04,5.04,5.04,5.04,5.05,5.05,5.03,5.03,5.03,5.03,5.02,5.02,5.02,5.03,5.02,5.01,5.01,5.02,5.01,5.01,5.00,5.01,5.01,5.00,5.00,5.01,5.01,5.00,5.00,5.00,5.01,5.00,4.99,4.99,5.00,4.99,4.99,5.00,5.01,5.00,4.99,5.00,5.01,5.00,5.00,5.00,5.02,5.03,5.02,5.03,5.15,5.40,5.82,5.91,5.63,5.46,5.40,5.34,5.31,5.27,5.25,5.01,4.79,4.55,4.23,3.90,3.55,3.26,3.04,2.86,2.76,2.67,2.59,2.48,2.36,2.30,2.26,2.23,2.18,2.17,2.16,2.15,2.15,2.17,2.21,2.22,2.34,2.48,2.63,2.80,3.01,3.29,3.62,3.90,4.19,4.47,4.76,4.98,5.17,5.36,5.53,5.67,5.78,5.84,5.93,5.98,6.03,6.08,6.14,6.18,6.20,6.26,6.31,6.37,6.41,6.45,6.51,6.58,6.62,6.67,6.72,6.78,6.82,6.86,6.90,6.96,7.00,7.02,7.05,7.10
7.11,7.11,7.11,7.11,7.11,7.09,7.03,6.99,6.94,6.88,6.79,6.72,6.65,6.56,6.46,6.37,6.29,6.21,6.12,6.03,5.97,5.90,5.81,5.74,5.70,5.64,5.58,5.53,5.49,5.46,5.44,5.37,5.35,5.34,5.30,5.27,5.27,5.25,5.24,5.23,5.20,5.20,5.20,5.18,5.16,5.18,5.17,5.15,5.13,5.15,5.15,5.16,5.14,5.15,5.16,5.16,5.14,5.16,5.16,5.15,5.15,5.15,5.17,5.15,5.14,5.15,5.17,5.16,5.15,5.14,5.15,5.15,5.14,5.13,5.15,5.16,5.15,5.12,5.13,5.14,5.13,5.11,5.11,5.12,5.10,5.09,5.09,5.09,5.09,5.08,5.06,5.07,5.08,5.07,5.05,5.07,5.07,5.05,5.04,5.04,5.04,5.04,5.03,5.05,5.05,5.04,5.05,5.06,5.08,5.08,5.07,5.08,5.09,5.07,5.07,5.06,5.07,5.06,5.04,5.04,5.03,5.02,5.01,5.00,4.99,4.98,4.97,4.95,4.95,4.97,4.97,4.98,4.99,5.00,4.99,4.99,5.00,5.07,5.21,5.59,5.97,5.87,5.55,5.43,5.38,5.35,5.29,5.22,5.11,4.94,4.69,4.39,4.10,3.82,3.54,3.44,3.15,3.02,2.92,2.76,2.60,2.47,2.40,2.33,2.27,2.22,2.20,2.17,2.15,2.14,2.15,2.18,2.19,2.25,2.38,2.53,2.71,2.92,3.18,3.50,3.61,4.12,4.41,4.70,4.93,5.16,5.35,5.54,5.68,5.80,5.86,5.92,5.96,6.01,6.06,6.12,6.16,6.19,6.24,6.28,6.35,6.38,6.43,6.49,6.55,6.57,6.66,6.73,6.78,6.83
6.86,6.92,6.96,7.00,7.03,7.05,7.06,7.09,7.07,7.05,7.04,7.00,6.95,6.88,6.83,6.76,6.68,6.59,6.51,6.44,6.41,6.23,6.15,6.07,5.97,5.88,5.80,5.75,5.67,5.59,5.53,5.49,5.45,5.39,5.36,5.34,5.31,5.27,5.24,5.23,5.21,5.19,5.18,5.18,5.17,5.16,5.12,5.13,5.13,5.12,5.10,5.10,5.12,5.10,5.09,5.09,5.10,5.11,5.10,5.09,5.10,5.10,5.09,5.10,5.11,5.12,5.11,5.11,5.12,5.13,5.13,5.12,5.12,5.12,5.12,5.11,5.10,5.11,5.11,5.09,5.09,5.10,5.09,5.07,5.07,5.08,5.08,5.06,5.04,5.05,5.06,5.04,5.04,5.04,5.05,5.05,5.02,5.03,5.04,5.02,5.01,5.02,5.02,5.02,5.01,5.01,5.01,5.01,5.00,4.98,5.00,5.00,4.99,4.98,4.99,5.00,5.00,4.98,4.99,4.99,4.97,4.98,4.98,5.00,4.99,4.98,4.98,5.00,4.99,4.98,4.99,5.01,5.03,5.05,5.16,5.54,6.02,5.92,5.61,5.49,5.45,5.40,5.34,5.24,5.09,5.03,4.56,4.24,3.91,3.53,3.19,2.94,2.76,2.61,2.45,2.32,2.25,2.19,2.14,2.12,2.11,2.09,2.09,2.08,2.12,2.17,2.26,2.40,2.58,2.78,2.84,3.30,3.63,3.93,4.20,4.48,4.76,4.99,5.20,5.38,5.54,5.66,5.72,5.76,5.81,5.88,5.93,5.94,5.98,6.03,6.07,6.10,6.14,6.19,6.24,6.25,6.31,6.36,6.42,6.46,6.50,6.56,6.62,6.65,6.69,6.73,6.79,6.82,6.84,6.85
6.89,6.90,6.89,6.87,6.85,6.83,6.77,6.71,6.66,6.58,6.55,6.41,6.34,6.26,6.16,6.06,5.98,5.92,5.82,5.73,5.66,5.62,5.55,5.49,5.44,5.40,5.37,5.33,5.30,5.28,5.26,5.23,5.21,5.22,5.19,5.18,5.17,5.17,5.17,5.17,5.16,5.16,5.17,5.17,5.16,5.16,5.16,5.17,5.15,5.15,5.17,5.17,5.16,5.16,5.17,5.17,5.16,5.15,5.16,5.15,5.15,5.14,5.15,5.15,5.13,5.13,5.12,5.13,5.11,5.11,5.10,5.11,5.10,5.08,5.07,5.08,5.08,5.05,5.05,5.06,5.05,5.05,5.04,5.05,5.04,5.04,5.02,5.02,5.04,5.03,5.01,5.02,5.03,5.01,4.99,5.00,5.01,5.01,5.00,5.00,5.01,5.01,5.00,4.99,4.99,5.00,4.98,4.98,4.99,4.99,4.98,4.97,4.99,4.99,4.98,4.98,5.00,4.99,4.99,4.99,5.01,5.05,5.17,5.55,5.97,5.80,5.48,5.39,5.35,5.30,5.24,5.11,4.91,4.66,4.32,4.21,3.59,3.26,3.00,2.76,2.59,2.47,2.35,2.24,2.18,2.14,2.14,2.11,2.10,2.10,2.11,2.12,2.12,2.17,2.29,2.43,2.62,2.83,3.14,3.48,3.58,4.10,4.43,4.72,4.96,5.17,5.39,5.59,5.70,5.76,5.83,5.89,5.93,5.96,6.00,6.06,6.08,6.10,6.13,6.17,6.20,6.23,6.24,6.28,6.33,6.34,6.39,6.44,6.49,6.52,6.55,6.60,6.65,6.69,6.70,6.75,6.80,6.83,6.84,6.86,6.89,6.90,6.88,6.85,6.85,6.81,6.75,6.69,6.63,6.55
6.52,6.37,6.28,6.21,6.10,6.01,5.94,5.86,5.77,5.68,5.64,5.58,5.52,5.46,5.42,5.38,5.34,5.31,5.28,5.27,5.25,5.23,5.21,5.22,5.20,5.20,5.17,5.17,5.18,5.18,5.15,5.18,5.17,5.18,5.17,5.16,5.18,5.18,5.17,5.15,5.17,5.18,5.17,5.16,5.17,5.17,5.16,5.15,5.16,5.16,5.16,5.15,5.14,5.14,5.13,5.11,5.12,5.12,5.11,5.09,5.09,5.09,5.09,5.07,5.07,5.07,5.07,5.05,5.04,5.05,5.05,5.04,5.03,5.03,5.04,5.03,5.01,5.02,5.03,5.02,5.00,5.01,5.03,5.01,5.00,5.01,5.01,5.01,4.99,4.99,5.00,4.99,4.98,4.98,4.99,4.99,4.99,4.97,4.98,4.99,4.99,4.96,4.98,4.98,4.97,4.96,4.97,5.00,4.98,4.98,4.97,4.98,4.98,4.97,4.99,5.00,5.02,5.04,5.19,5.62,5.95,5.71,5.44,5.36,5.33,5.31,5.19,5.09,4.91,4.63,4.25,3.89,3.53,3.18,2.92,2.73,2.61,2.49,2.35,2.25,2.22,2.19,2.15,2.14,2.14,2.13,2.11,2.12,2.14,2.17,2.18,2.29,2.45,2.64,2.85,3.15,3.51,3.87,4.20,4.51,4.82,5.08,5.30,5.48,5.67,5.79,5.86,5.91,5.96,6.01,6.04,6.06,6.08,6.12,6.14,6.14,6.16,6.19,6.22,6.24,6.25,6.31,6.37,6.40,6.43,6.47,6.52,6.55,6.58,6.63,6.68,6.72,6.73,6.76,6.79,6.83,6.83,6.83,6.84,6.85,6.84,6.79,6.78,6.73,6.67,6.60,6.53,6.47,6.37,6.28
6.19,6.12,6.02,5.92,5.84,5.78,5.70,5.62,5.55,5.50,5.46,5.40,5.35,5.33,5.31,5.30,5.24,5.23,5.23,5.20,5.18,5.18,5.18,5.17,5.16,5.17,5.16,5.17,5.15,5.15,5.16,5.17,5.16,5.16,5.17,5.18,5.16,5.16,5.17,5.17,5.17,5.15,5.16,5.16,5.15,5.13,5.13,5.15,5.14,5.12,5.12,5.12,5.11,5.10,5.09,5.10,5.10,5.09,5.07,5.08,5.08,5.07,5.06,5.06,5.06,5.06,5.04,5.04,5.05,5.04,5.02,5.03,5.03,5.02,5.01,5.02,5.03,5.02,5.00,5.00,5.02,5.01,4.99,4.99,5.00,5.01,5.00,4.99,5.01,5.01,5.01,5.00,5.00,5.00,5.00,4.99,5.00,5.01,5.00,4.99,4.99,5.00,5.00,4.99,4.99,5.00,5.00,4.99,4.99,5.01,5.04,5.11,5.44,5.88,5.83,5.72,5.40,5.37,5.32,5.27,5.19,5.06,4.85,4.55,4.20,3.84,3.51,3.23,2.98,2.78,2.67,2.52,2.37,2.27,2.24,2.21,2.18,2.15,2.16,2.16,2.16,2.15,2.18,2.21,2.28,2.39,2.56,2.75,3.02,3.34,3.67,3.99,4.31,4.61,4.89,5.13,5.34,5.52,5.67,5.78,5.85,5.89,5.93,5.99,6.04,6.05,6.09,6.14,6.17,6.19,6.21,6.25,6.29,6.31,6.33,6.38,6.43,6.46,6.49,6.54,6.60,6.64,6.67,6.71,6.76,6.80,6.83,6.86,6.90,6.93,6.94,6.95,6.98,6.99,6.98,6.95,6.94,6.91,6.85,6.78,6.72,6.65,6.58,6.48,6.39,6.31,6.18,6.05,5.94,5.85
5.76,5.66,5.58,5.54,5.49,5.46,5.40,5.37,5.34,5.31,5.26,5.26,5.25,5.23,5.20,5.21,5.20,5.20,5.18,5.18,5.19,5.19,5.17,5.17,5.18,5.19,5.19,5.18,5.19,5.20,5.21,5.19,5.20,5.21,5.19,5.18,5.19,5.19,5.19,5.16,5.16,5.16,5.15,5.14,5.13,5.14,5.14,5.12,5.11,5.11,5.12,5.09,5.09,5.09,5.10,5.10,5.06,5.08,5.09,5.07,5.05,5.07,5.08,5.07,5.06,5.05,5.06,5.06,5.05,5.05,5.05,5.06,5.04,5.04,5.05,5.05,5.04,5.03,5.05,5.05,5.05,5.04,5.04,5.05,5.04,5.04,5.04,5.05,5.04,5.03,5.04,5.04,5.04,5.03,5.04,5.04,5.04,5.04,5.03,5.04,5.04,5.04,5.03,5.05,5.07,5.08,5.21,5.61,5.99,5.87,5.56,5.46,5.41,5.34,5.29,5.20,5.06,4.85,4.54,4.21,3.91,3.55,3.22,2.99,2.80,2.67,2.55,2.43,2.34,2.28,2.27,2.20,2.20,2.20,2.17,2.15,2.18,2.20,2.21,2.24,2.33,2.46,2.62,2.82,3.13,3.46,3.79,4.09,4.41,4.72,4.97,5.18,5.37,5.56,5.71,5.76,5.86,5.92,5.98,6.03,6.05,6.10,6.13,6.17,6.18,6.23,6.28,6.31,6.33,6.38,6.43,6.46,6.49,6.53,6.59,6.63,6.65,6.69,6.75,6.79,6.80,6.85,6.90,6.93,6.96,6.96,7.00,7.01,7.01,6.99,6.98,6.97,6.92,6.87,6.82,6.76,6.68,6.59,6.50,6.42,6.32,6.22,6.13,6.03,5.96,5.93,5.78,5.71,5.65,5.58
5.52,5.48,5.45,5.40,5.36,5.34,5.33,5.31,5.27,5.26,5.25,5.23,5.22,5.21,5.23,5.22,5.20,5.19,5.20,5.21,5.21,5.20,5.20,5.21,5.19,5.18,5.20,5.21,5.21,5.19,5.21,5.22,5.23,5.23,5.24,5.25,5.25,5.25,5.23,5.25,5.24,5.23,5.23,5.23,5.24,5.24,5.19,5.18,5.16,5.15,5.12,5.12,5.12,5.10,5.07,5.08,5.09,5.11,5.10,5.09,5.08,5.09,5.06,5.06,5.07,5.07,5.06,5.05,5.07,5.07,5.07,5.05,5.05,5.07,5.05,5.03,5.04,5.06,5.05,5.02,5.03,5.04,5.03,5.03,5.03,5.03,5.04,5.02,5.02,5.02,5.03,5.03,5.02,5.04,5.03,5.03,5.02,5.03,5.03,5.03,5.03,5.04,5.05,5.04,5.03,5.04,5.05,5.06,5.07,5.16,5.47,5.96,5.97,5.64,5.50,5.44,5.37,5.32,5.25,5.11,5.06,4.57,4.24,3.89,3.51,3.16,2.94,2.78,2.68,2.58,2.50,2.41,2.32,2.27,2.24,2.24,2.21,2.19,2.18,2.20,2.20,2.22,2.27,2.37,2.50,2.55,2.84,3.09,3.38,3.68,3.98,4.28,4.59,4.85,5.08,5.29,5.49,5.66,5.78,5.86,5.95,6.01,6.03,6.09,6.15,6.19,6.23,6.28,6.34,6.39,6.41,6.48,6.54,6.58,6.64,6.68,6.73,6.78,6.84,6.87,6.91,6.97,7.01,7.03,7.06,7.10,7.11,7.11,7.11,7.10,7.08,7.04,7.00,6.95,6.89,6.87,6.73,6.64,6.56,6.47,6.37,6.29,6.22,6.12,6.03,5.95,5.89,5.82,5.73,5.68
5.62,5.58,5.52,5.47,5.43,5.41,5.36,5.34,5.32,5.30,5.28,5.24,5.25,5.24,5.20,5.20,5.19,5.20,5.17,5.15,5.16,5.16,5.15,5.14,5.13,5.14,5.15,5.13,5.13,5.14,5.15,5.14,5.13,5.13,5.15,5.14,5.12,5.13,5.15,5.14,5.13,5.14,5.15,5.14,5.13,5.14,5.14,5.15,5.13,5.13,5.13,5.13,5.12,5.11,5.11,5.12,5.11,5.10,5.10,5.10,5.10,5.07,5.08,5.09,5.06,5.06,5.06,5.07,5.06,5.05,5.05,5.06,5.05,5.03,5.03,5.05,5.06,5.06,5.06,5.08,5.09,5.08,5.08,5.10,5.09,5.09,5.06,5.08,5.08,5.07,5.05,5.05,5.05,5.02,5.00,4.99,4.99,4.99,4.97,4.97,4.98,4.98,4.99,5.00,5.01,5.00,4.99,4.99,5.01,5.01,5.01,5.09,5.32,5.79,5.93,5.62,5.44,5.39,5.34,5.29,5.25,5.12,4.93,4.68,4.40,4.13,3.84,3.56,3.36,3.23,3.11,2.97,2.80,2.65,2.52,2.48,2.37,2.34,2.28,2.25,2.21,2.21,2.21,2.21,2.22,2.32,2.45,2.60,2.78,3.02,3.34,3.69,3.99,4.31,4.60,4.88,5.10,5.29,5.48,5.64,5.68,5.83,5.90,5.94,5.99,6.02,6.09,6.13,6.16,6.19,6.25,6.31,6.35,6.38,6.43,6.50,6.55,6.58,6.64,6.69,6.74,6.78,6.83,6.89,6.93,6.95,7.00,7.04,7.07,7.08,7.08,7.10,7.09,7.07,7.04,7.00,6.96,6.91,6.84,6.78,6.71,6.63,6.53,6.44,6.37,6.29,6.19,6.10,6.04,5.96
5.93,5.79,5.72,5.67,5.60,5.55,5.51,5.47,5.43,5.39,5.36,5.35,5.32,5.29,5.26,5.27,5.24,5.22,5.21,5.22,5.21,5.19,5.18,5.19,5.18,5.18,5.16,5.16,5.17,5.16,5.15,5.15,5.16,5.16,5.15,5.16,5.17,5.17,5.16,5.17,5.19,5.18,5.17,5.17,5.19,5.18,5.18,5.17,5.18,5.20,5.20,5.16,5.17,5.17,5.17,5.15,5.15,5.16,5.15,5.13,5.13,5.15,5.14,5.12,5.12,5.13,5.12,5.10,5.09,5.10,5.09,5.08,5.08,5.10,5.10,5.09,5.07,5.07,5.09,5.06,5.06,5.06,5.08,5.06,5.04,5.06,5.06,5.06,5.05,5.04,5.06,5.06,5.05,5.05,5.05,5.06,5.04,5.03,5.06,5.06,5.06,5.04,5.05,5.07,5.05,5.04,5.05,5.05,5.05,5.04,5.06,5.10,5.17,5.44,5.90,5.85,5.54,5.44,5.41,5.38,5.33,5.23,5.07,4.86,4.57,4.48,3.87,3.51,3.22,2.94,2.75,2.63,2.49,2.36,2.27,2.24,2.23,2.21,2.18,2.19,2.20,2.20,2.20,2.23,2.30,2.42,2.58,2.80,3.12,3.47,3.58,4.13,4.46,4.77,5.02,5.25,5.46,5.64,5.74,5.80,5.88,5.93,5.98,6.00,6.05,6.09,6.13,6.15,6.18,6.23,6.26,6.29,6.33,6.37,6.42,6.43,6.48,6.54,6.59,6.62,6.65,6.70,6.75,6.78,6.82,6.86,6.91,6.93,6.94,6.95,6.97,6.97,6.96,6.93,6.90,6.85,6.78,6.72,6.65,6.56,6.54,6.37,6.28,6.19,6.09,5.99,5.91,5.84,5.76,5.68
5.63,5.58,5.53,5.47,5.45,5.41,5.38,5.35,5.33,5.33,5.32,5.28,5.28,5.28,5.27,5.26,5.25,5.24,5.26,5.25,5.24,5.25,5.27,5.25,5.24,5.25,5.27,5.27,5.25,5.25,5.26,5.27,5.25,5.24,5.26,5.25,5.24,5.24,5.24,5.24,5.25,5.21,5.22,5.22,5.20,5.19,5.19,5.18,5.18,5.17,5.16,5.17,5.17,5.15,5.15,5.16,5.15,5.14,5.13,5.15,5.13,5.12,5.12,5.12,5.13,5.12,5.11,5.12,5.12,5.11,5.10,5.11,5.11,5.10,5.09,5.09,5.10,5.10,5.09,5.09,5.10,5.09,5.09,5.07,5.08,5.09,5.08,5.07,5.09,5.08,5.08,5.07,5.07,5.09,5.08,5.06,5.07,5.08,5.07,5.08,5.10,5.14,5.26,5.70,6.01,5.74,5.47,5.43,5.38,5.33,5.24,5.08,4.82,4.50,4.13,4.01,3.36,3.08,2.85,2.67,2.54,2.43,2.33,2.27,2.23,2.22,2.21,2.20,2.19,2.19,2.21,2.24,2.28,2.38,2.57,2.80,3.07,3.44,3.83,4.18,4.29,4.84,5.10,5.32,5.51,5.68,5.81,5.87,5.91,5.94,5.99,6.04,6.08,6.12,6.17,6.20,6.23,6.24,6.29,6.32,6.35,6.37,6.41,6.45,6.49,6.50,6.55,6.60,6.64,6.66,6.69,6.75,6.79,6.82,6.84,6.89,6.91,6.92,6.91,6.92,6.91,6.89,6.84,6.79,6.74,6.67,6.58,6.49,6.41,6.32,6.29,6.11,6.02,5.93,5.84,5.74,5.67,5.63,5.56,5.50,5.46,5.43,5.39,5.35,5.33,5.32,5.30,5.28,5.27,5.28
5.26,5.24,5.24,5.24,5.24,5.23,5.23,5.24,5.24,5.23,5.23,5.24,5.25,5.24,5.23,5.23,5.24,5.24,5.23,5.22,5.23,5.23,5.21,5.20,5.22,5.21,5.20,5.19,5.19,5.19,5.18,5.17,5.16,5.17,5.15,5.14,5.14,5.14,5.13,5.12,5.12,5.13,5.12,5.09,5.10,5.10,5.10,5.08,5.08,5.09,5.09,5.08,5.07,5.09,5.08,5.08,5.07,5.08,5.08,5.07,5.06,5.07,5.07,5.06,5.05,5.07,5.07,5.07,5.05,5.05,5.07,5.07,5.06,5.05,5.07,5.06,5.05,5.06,5.05,5.07,5.06,5.05,5.06,5.07,5.06,5.08,5.13,5.26,5.66,6.03,5.85,5.58,5.48,5.42,5.37,5.32,5.22,5.02,4.79,4.48,4.13,3.75,3.40,3.15,2.91,2.85,2.62,2.50,2.37,2.29,2.25,2.23,2.22,2.20,2.18,2.19,2.20,2.21,2.23,2.30,2.41,2.57,2.77,3.02,3.35,3.69,4.00,4.31,4.64,4.92,5.00,5.36,5.56,5.72,5.80,5.87,5.93,5.99,6.02,6.06,6.10,6.15,6.17,6.19,6.23,6.28,6.31,6.34,6.38,6.43,6.47,6.51,6.54,6.58,6.63,6.65,6.69,6.73,6.77,6.79,6.81,6.84,6.88,6.89,6.89,6.92,6.93,6.92,6.92,6.93,6.92,6.89,6.83,6.78,6.73,6.67,6.59,6.52,6.45,6.37,6.33,6.16,6.08,6.00,5.92,5.83,5.76,5.69,5.62,5.55,5.51,5.47,5.42,5.37,5.34,5.34,5.30,5.27,5.26,5.26,5.24,5.23,5.22,5.24,5.23,5.23,5.21,5.23,5.23,5.22
5.21,5.23,5.23,5.22,5.22,5.22,5.23,5.23,5.22,5.23,5.24,5.23,5.23,5.22,5.23,5.23,5.21,5.21,5.21,5.21,5.21,5.19,5.18,5.19,5.18,5.17,5.16,5.16,5.15,5.14,5.13,5.13,5.13,5.12,5.11,5.12,5.12,5.09,5.09,5.11,5.10,5.08,5.08,5.07,5.09,5.08,5.06,5.07,5.08,5.06,5.05,5.06,5.05,5.06,5.04,5.04,5.05,5.05,5.04,5.05,5.05,5.04,5.03,5.04,5.05,5.04,5.03,5.03,5.04,5.04,5.04,5.03,5.04,5.05,5.04,5.02,5.04,5.04,5.03,5.01,5.04,5.04,5.04,5.04,5.05,5.10,5.22,5.62,5.93,5.72,5.47,5.36,5.29,5.21,5.07,5.02,4.65,4.40,4.13,3.89,3.68,3.52,3.32,3.05,2.77,2.60,2.48,2.36,2.25,2.20,2.19,2.17,2.15,2.14,2.16,2.17,2.17,2.23,2.33,2.50,2.55,2.96,3.25,3.59,3.93,4.26,4.57,4.87,5.11,5.31,5.53,5.68,5.76,5.81,5.89,5.94,5.98,6.00,6.05,6.09,6.11,6.14,6.17,6.21,6.24,6.25,6.30,6.36,6.38,6.40,6.44,6.50,6.53,6.57,6.60,6.65,6.69,6.72,6.74,6.79,6.82,6.85,6.85,6.87,6.89,6.89,6.87,6.85,6.82,6.79,6.77,6.69,6.63,6.57,6.47,6.37,6.30,6.21,6.12,6.01,5.93,5.85,5.76,5.66,5.59,5.53,5.47,5.40,5.36,5.33,5.30,5.25,5.23,5.24,5.25,5.24,5.20,5.21,5.19,5.18,5.18,5.18,5.18,5.18,5.17,5.18,5.19,5.19,5.18,5.18
5.19,5.20,5.18,5.17,5.18,5.17,5.17,5.17,5.18,5.18,5.16,5.14,5.15,5.16,5.14,5.11,5.13,5.13,5.11,5.10,5.11,5.11,5.11,5.08,5.10,5.09,5.09,5.06,5.07,5.07,5.07,5.07,5.05,5.07,5.06,5.06,5.04,5.06,5.05,5.04,5.02,5.05,5.04,5.04,5.02,5.03,5.04,5.05,5.03,5.03,5.04,5.03,5.03,5.02,5.03,5.04,5.02,5.03,5.04,5.03,5.03,5.02,5.04,5.03,5.03,5.02,5.02,5.03,5.04,5.02,5.02,5.04,5.03,5.03,5.02,5.03,5.03,5.01,5.02,5.03,5.04,5.03,5.07,5.17,5.56,5.72,5.77,5.50,5.42,5.37,5.31,5.26,5.20,5.03,4.80,4.53,4.23,3.88,3.51,3.19,2.96,2.74,2.59,2.49,2.38,2.27,2.21,2.17,2.17,2.15,2.15,2.12,2.14,2.14,2.15,2.17,2.25,2.38,2.54,2.71,2.99,3.30,3.63,3.94,4.26,4.58,4.86,5.08,5.31,5.50,5.66,5.77,5.85,5.91,5.96,5.98,6.04,6.08,6.13,6.16,6.18,6.22,6.26,6.28,6.32,6.36,6.40,6.43,6.47,6.52,6.56,6.60,6.63,6.68,6.73,6.77,6.80,6.84,6.90,6.92,6.93,6.97,7.00,7.02,7.01,6.99,7.00,6.96,6.91,6.85,6.81,6.75,6.66,6.56,6.49,6.41,6.31,6.20,6.10,6.03,5.94,5.85,5.77,5.73,5.65,5.63,5.51,5.47,5.43,5.38,5.34,5.32,5.30,5.27,5.24,5.23,5.22,5.20,5.19,5.20,5.20,5.18,5.16,5.17,5.18,5.17,5.17,5.16,5.18,5.18
5.18,5.17,5.18,5.18,5.16,5.16,5.18,5.19,5.20,5.20,5.21,5.22,5.22,5.21,5.20,5.21,5.22,5.19,5.19,5.20,5.19,5.16,5.14,5.13,5.11,5.10,5.07,5.07,5.06,5.05,5.04,5.06,5.07,5.05,5.04,5.04,5.05,5.04,5.03,5.02,5.04,5.02,5.01,5.02,5.02,5.03,5.01,5.01,5.01,5.02,5.01,4.99,5.01,5.01,5.00,5.00,4.99,5.00,5.00,4.99,5.00,5.00,4.99,4.99,4.99,5.00,5.00,5.00,4.99,5.01,5.00,5.00,4.99,5.00,5.01,5.00,5.00,5.01,5.01,5.02,5.02,5.04,5.08,5.18,5.51,5.95,5.88,5.57,5.44,5.40,5.35,5.31,5.21,5.09,4.88,4.61,4.27,3.94,3.61,3.26,3.16,2.80,2.66,2.57,2.47,2.35,2.26,2.22,2.17,2.14,2.13,2.12,2.12,2.11,2.12,2.15,2.21,2.30,2.45,2.64,2.83,3.05,3.34,3.67,3.96,4.05,4.55,4.83,5.06,5.24,5.42,5.59,5.70,5.78,5.83,5.89,5.93,5.97,6.00,6.05,6.11,6.13,6.16,6.20,6.26,6.32,6.34,6.39,6.44,6.49,6.50,6.59,6.66,6.70,6.74,6.77,6.83,6.88,6.91,6.93,6.98,7.00,7.01,7.01,7.02,7.01,6.98,6.95,6.93,6.88,6.84,6.77,6.70,6.64,6.56,6.54,6.39,6.32,6.24,6.14,6.06,6.00,5.92,5.83,5.75,5.70,5.64,5.58,5.52,5.48,5.44,5.41,5.36,5.33,5.31,5.28,5.24,5.23,5.22,5.19,5.18,5.16,5.15,5.16,5.13,5.12,5.13,5.13,5.11,5.11
5.11,5.11,5.11,5.10,5.11,5.12,5.12,5.10,5.10,5.11,5.12,5.11,5.10,5.11,5.11,5.12,5.10,5.11,5.11,5.11,5.09,5.10,5.12,5.11,5.09,5.09,5.10,5.09,5.08,5.08,5.09,5.06,5.05,5.06,5.07,5.05,5.05,5.04,5.05,5.04,5.04,5.01,5.03,5.03,5.02,5.02,5.02,5.02,5.01,5.00,5.02,5.00,5.01,5.00,5.00,5.01,5.02,5.02,5.02,5.04,5.04,5.02,5.02,5.03,5.03,5.03,5.01,5.02,5.01,4.99,4.96,4.97,4.98,4.94,4.93,4.92,4.94,4.92,4.90,4.91,4.93,4.94,4.93,4.93,4.94,4.95,4.95,4.99,5.12,5.51,5.67,5.73,5.45,5.36,5.32,5.26,5.23,5.15,4.97,4.74,4.43,4.12,3.80,3.45,3.18,3.04,2.90,2.77,2.62,2.47,2.33,2.23,2.18,2.15,2.10,2.08,2.05,2.05,2.05,2.08,2.13,2.27,2.46,2.63,2.87,3.19,3.53,3.85,4.15,4.47,4.75,4.99,5.19,5.40,5.57,5.70,5.78,5.84,5.91,5.96,5.98,6.05,6.11,6.15,6.18,6.23,6.29,6.34,6.38,6.41,6.49,6.54,6.59,6.64,6.70,6.76,6.80,6.83,6.87,6.92,6.95,6.98,7.00,7.03,7.04,7.04,7.01,7.01,6.98,6.94,6.88,6.85,6.78,6.70,6.62,6.54,6.45,6.36,6.26,6.17,6.09,6.00,5.91,5.84,5.76,5.69,5.61,5.56,5.50,5.45,5.43,5.36,5.33,5.30,5.26,5.22,5.22,5.19,5.17,5.14,5.15,5.13,5.12,5.09,5.09,5.10,5.09,5.07,5.06,5.07
5.07,5.05,5.05,5.06,5.06,5.06,5.05,5.06,5.07,5.05,5.06,5.07,5.06,5.06,5.06,5.07,5.08,5.08,5.06,5.07,5.08,5.08,5.06,5.07,5.07,5.07,5.05,5.05,5.06,5.05,5.05,5.04,5.04,5.05,5.03,5.01,5.03,5.02,5.02,5.00,5.01,5.01,5.00,4.99,4.99,4.99,4.98,4.97,4.97,4.98,4.98,4.96,4.96,4.97,4.97,4.96,4.95,4.96,4.95,4.95,4.95,4.96,4.96,4.94,4.94,4.95,4.96,4.95,4.94,4.94,4.94,4.94,4.94,4.95,4.94,4.95,4.93,4.93,4.94,4.94,4.94,4.93,4.94,4.94,4.93,4.93,4.96,5.00,5.08,5.37,5.86,5.89,5.56,5.39,5.33,5.26,5.15,4.97,4.74,4.46,4.12,3.78,3.49,3.25,3.00,2.91,2.45,2.32,2.20,2.11,2.04,2.04,2.02,2.01,1.99,2.00,2.00,2.02,2.06,2.16,2.33,2.52,2.73,3.02,3.33,3.65,3.98,4.29,4.56,4.83,4.91,5.28,5.47,5.60,5.68,5.73,5.80,5.86,5.89,5.93,5.97,6.02,6.04,6.06,6.11,6.15,6.19,6.21,6.26,6.30,6.33,6.36,6.41,6.46,6.49,6.50,6.57,6.61,6.65,6.67,6.71,6.75,6.78,6.80,6.81,6.84,6.85,6.83,6.82,6.82,6.80,6.76,6.70,6.67,6.61,6.54,6.45,6.38,6.31,6.21,6.18,6.03,5.96,5.87,5.78,5.69,5.63,5.57,5.50,5.43,5.38,5.36,5.30,5.26,5.24,5.21,5.19,5.15,5.15,5.14,5.12,5.11,5.11,5.10,5.10,5.09,5.09,5.09,5.10,5.08
5.07,5.09,5.09,5.08,5.07,5.09,5.10,5.09,5.08,5.09,5.09,5.09,5.08,5.08,5.09,5.09,5.08,5.07,5.08,5.08,5.07,5.06,5.07,5.06,5.05,5.05,5.04,5.05,5.03,5.02,5.03,5.02,5.02,5.00,5.00,5.01,5.00,4.98,4.99,5.00,4.99,4.97,4.96,4.98,4.98,4.97,4.96,4.97,4.97,4.96,4.95,4.96,4.96,4.95,4.94,4.95,4.96,4.94,4.94,4.94,4.95,4.93,4.93,4.93,4.95,4.94,4.92,4.93,4.94,4.94,4.93,4.92,4.93,4.94,4.92,4.92,4.92,4.94,4.92,4.92,4.93,4.94,4.94,4.94,4.98,5.08,5.39,5.89,5.89,5.52,5.36,5.29,5.23,5.17,5.01,4.95,4.44,4.03,3.61,3.20,2.85,2.60,2.43,2.29,2.14,2.06,2.02,1.99,1.97,1.95,1.97,1.95,1.95,1.98,2.03,2.11,2.25,2.46,2.70,3.00,3.10,3.72,4.08,4.38,4.67,4.93,5.16,5.37,5.54,5.66,5.75,5.82,5.87,5.89,5.94,5.99,6.02,6.03,6.07,6.11,6.13,6.16,6.19,6.23,6.26,6.27,6.33,6.37,6.42,6.46,6.49,6.54,6.58,6.63,6.66,6.70,6.73,6.76,6.79,6.81,6.84,6.84,6.82,6.82,6.81,6.77,6.72,6.66,6.61,6.54,6.51,6.36,6.29,6.18,6.07,5.98,5.91,5.80,5.71,5.63,5.57,5.51,5.43,5.38,5.35,5.31,5.27,5.23,5.22,5.21,5.19,5.17,5.15,5.17,5.15,5.14,5.13,5.13,5.14,5.12,5.12,5.14,5.13,5.12,5.11,5.12,5.13,5.13,5.12,5.12
5.14,5.13,5.12,5.12,5.13,5.13,5.11,5.11,5.12,5.12,5.11,5.09,5.10,5.09,5.08,5.07,5.07,5.07,5.06,5.05,5.05,5.04,5.04,5.02,5.02,5.03,5.03,5.01,5.01,5.01,5.00,4.99,5.00,5.00,5.00,4.99,4.98,4.98,4.98,4.97,4.96,4.97,4.97,4.96,4.95,4.97,4.97,4.96,4.94,4.96,4.96,4.95,4.95,4.95,4.97,4.96,4.96,4.95,4.97,4.96,4.96,4.95,4.95,4.95,4.95,4.95,4.96,4.96,4.96,4.96,4.98,5.00,5.12,5.52,6.00,5.82,5.47,5.37,5.33,5.29,5.21,5.07,4.85,4.56,4.18,4.07,3.40,3.07,2.79,2.57,2.41,2.29,2.15,2.06,2.02,2.02,2.00,1.99,1.97,1.97,2.00,2.01,2.07,2.19,2.37,2.59,2.85,3.22,3.59,3.92,4.02,4.56,4.85,5.08,5.29,5.51,5.67,5.76,5.82,5.87,5.93,5.99,6.03,6.08,6.13,6.18,6.21,6.23,6.27,6.32,6.34,6.36,6.39,6.45,6.47,6.48,6.53,6.58,6.61,6.63,6.67,6.72,6.78,6.81,6.82,6.86,6.88,6.90,6.89,6.90,6.88,6.86,6.80,6.76,6.71,6.63,6.54,6.46,6.38,6.29,6.25,6.09,6.00,5.91,5.80,5.72,5.65,5.58,5.50,5.43,5.38,5.34,5.30,5.26,5.24,5.22,5.19,5.17,5.17,5.16,5.15,5.13,5.14,5.15,5.14,5.15,5.13,5.14,5.15,5.14,5.13,5.15,5.15,5.15,5.13,5.15,5.15,5.13,5.13,5.14,5.14,5.14,5.12,5.12,5.13,5.11,5.10,5.10,5.11,5.10
5.10,5.08,5.09,5.08,5.07,5.06,5.07,5.06,5.05,5.02,5.04,5.05,5.03,5.02,5.02,5.02,5.02,5.00,5.00,5.01,5.00,5.00,4.98,5.00,4.99,4.98,4.98,4.98,4.99,4.96,4.96,4.97,4.98,4.95,4.95,4.96,4.97,4.96,4.95,4.96,4.96,4.96,4.93,4.95,4.96,4.95,4.94,4.95,4.96,4.96,4.95,4.94,4.95,4.95,4.94,4.95,4.95,4.97,4.99,5.06,5.39,5.88,5.90,5.52,5.35,5.29,5.17,5.05,4.87,4.67,4.39,4.09,3.81,3.61,3.41,3.34,2.89,2.62,2.44,2.28,2.15,2.08,2.03,1.99,1.97,1.97,1.98,1.97,1.96,1.99,2.06,2.14,2.29,2.51,2.80,3.10,3.43,3.81,4.15,4.44,4.53,4.98,5.22,5.43,5.59,5.69,5.78,5.84,5.88,5.92,5.97,6.02,6.05,6.08,6.12,6.16,6.20,6.21,6.24,6.29,6.32,6.34,6.38,6.42,6.46,6.48,6.52,6.57,6.61,6.64,6.68,6.73,6.77,6.80,6.83,6.87,6.90,6.91,6.94,6.94,6.96,6.94,6.92,6.89,6.85,6.79,6.72,6.65,6.56,6.47,6.43,6.25,6.16,6.06,5.96,5.86,5.78,5.69,5.60,5.54,5.50,5.45,5.40,5.34,5.31,5.28,5.25,5.20,5.18,5.18,5.16,5.13,5.12,5.13,5.12,5.12,5.10,5.11,5.12,5.10,5.09,5.10,5.10,5.09,5.09,5.10,5.10,5.11,5.09,5.11,5.12,5.11,5.10,5.10,5.11,5.11,5.10,5.09,5.11,5.10,5.09,5.08,5.09,5.08,5.07,5.06,5.08,5.06,5.05,5.04
5.05,5.04,5.03,5.02,5.02,5.02,5.01,5.00,4.99,5.01,4.99,4.99,4.98,5.00,4.98,4.97,4.97,4.99,4.98,4.97,4.96,4.97,4.97,4.96,4.96,4.96,4.97,4.95,4.95,4.96,4.95,4.94,4.93,4.94,4.96,4.95,4.94,4.93,4.95,4.95,4.93,4.93,4.93,4.94,4.92,4.93,4.95,4.94,4.93,4.92,4.93,4.94,4.92,4.92,4.93,4.93,4.93,4.92,4.93,4.96,4.97,5.07,5.43,5.91,5.87,5.79,5.39,5.34,5.28,5.20,5.11,4.95,4.71,4.38,4.03,3.67,3.29,2.96,2.69,2.50,2.37,2.24,2.12,2.04,2.00,1.97,1.95,1.93,1.92,1.92,1.92,1.93,1.95,2.00,2.07,2.19,2.38,2.58,2.85,3.19,3.56,3.88,4.22,4.52,4.81,5.06,5.27,5.46,5.63,5.74,5.80,5.86,5.92,5.98,6.01,6.02,6.06,6.11,6.13,6.15,6.19,6.24,6.27,6.29,6.32,6.37,6.42,6.45,6.49,6.53,6.58,6.63,6.64,6.71,6.74,6.78,6.80,6.83,6.88,6.89,6.90,6.90,6.92,6.91,6.88,6.85,6.83,6.78,6.72,6.65,6.59,6.51,6.43,6.34,6.25,6.17,6.07,5.99,5.91,5.84,5.76,5.66,5.57,5.52,5.45,5.42,5.34,5.30,5.25,5.20,5.16,5.15,5.14,5.10,5.09,5.10,5.12,5.10,5.09,5.09,5.10,5.08,5.07,5.06,5.09,5.08,5.06,5.07,5.10,5.09,5.09,5.08,5.10,5.09,5.09,5.09,5.10,5.11,5.10,5.08,5.09,5.10,5.09,5.08,5.08,5.08,5.07,5.06,5.07,5.06
5.05,5.04,5.04,5.05,5.04,5.03,5.03,5.02,5.02,5.00,5.00,5.01,5.01,4.99,4.98,5.00,5.00,4.98,4.97,4.98,4.98,4.98,4.97,4.98,4.99,4.97,4.96,4.96,4.97,4.96,4.96,4.95,4.97,4.97,4.95,4.95,4.96,4.96,4.95,4.94,4.95,4.96,4.96,4.94,4.95,4.96,4.95,4.94,4.94,4.95,4.94,4.93,4.94,4.95,4.95,4.94,4.93,4.97,4.96,4.96,4.95,4.97,5.01,5.10,5.41,5.88,5.88,5.56,5.40,5.36,5.30,5.24,5.14,4.99,4.78,4.48,4.13,3.78,3.43,3.09,2.99,2.60,2.48,2.34,2.19,2.08,2.05,2.01,1.98,1.96,1.95,1.95,1.94,1.94,1.97,2.00,2.06,2.18,2.36,2.59,2.88,3.23,3.61,3.97,4.31,4.41,4.91,5.14,5.36,5.53,5.67,5.79,5.84,5.90,5.94,6.00,6.04,6.07,6.10,6.16,6.19,6.23,6.25,6.31,6.34,6.38,6.42,6.47,6.53,6.56,6.58,6.65,6.71,6.75,6.79,6.82,6.88,6.92,6.94,6.97,7.00,7.01,7.03,7.03,7.03,7.02,6.99,6.95,6.90,6.86,6.79,6.71,6.62,6.54,6.43,6.40,6.23,6.15,6.06,5.96,5.86,5.79,5.71,5.62,5.55,5.50,5.44,5.40,5.35,5.31,5.28,5.24,5.21,5.20,5.18,5.16,5.13,5.12,5.12,5.12,5.11,5.09,5.11,5.10,5.09,5.07,5.09,5.09,5.09,5.08,5.09,5.10,5.09,5.09,5.10,5.11,5.09,5.09,5.10,5.10,5.09,5.08,5.09,5.11,5.09,5.08,5.08,5.09,5.09,5.08
5.08,5.10,5.10,5.10,5.10,5.10,5.11,5.09,5.08,5.09,5.07,5.05,5.03,5.01,5.01,4.99,4.96,4.95,4.96,4.94,4.93,4.91,4.93,4.93,4.94,4.93,4.94,4.94,4.93,4.91,4.93,4.93,4.93,4.92,4.92,4.92,4.91,4.91,4.90,4.92,4.91,4.89,4.90,4.91,4.92,4.91,4.89,4.91,4.91,4.90,4.90,4.90,4.91,4.90,4.89,4.91,4.92,4.92,4.91,4.92,4.94,4.97,5.06,5.37,5.87,5.90,5.55,5.38,5.33,5.28,5.26,5.15,5.05,4.82,4.51,4.14,3.80,3.42,3.07,2.81,2.65,2.53,2.41,2.29,2.18,2.10,2.06,2.01,2.00,1.99,1.96,1.95,1.95,1.99,2.03,2.06,2.23,2.39,2.57,2.78,3.07,3.40,3.73,4.04,4.35,4.67,4.95,5.16,5.35,5.55,5.69,5.79,5.84,5.91,5.98,6.02,6.07,6.12,6.17,6.22,6.24,6.31,6.36,6.40,6.44,6.49,6.56,6.61,6.66,6.70,6.77,6.81,6.85,6.89,6.94,6.99,7.02,7.05,7.09,7.11,7.12,7.12,7.12,7.12,7.10,7.09,7.03,6.99,6.93,6.85,6.78,6.72,6.63,6.54,6.44,6.38,6.28,6.17,6.08,6.00,5.93,5.84,5.76,5.69,5.63,5.56,5.50,5.45,5.42,5.37,5.36,5.28,5.26,5.23,5.21,5.16,5.14,5.12,5.11,5.09,5.08,5.07,5.06,5.05,5.04,5.04,5.03,5.01,5.01,5.03,5.02,5.01,5.01,5.02,5.02,5.01,5.01,5.02,5.03,5.02,5.00,5.01,5.02,5.01,5.00,5.02,5.03,5.02,5.01,5.03
5.04,5.03,5.01,5.01,5.02,5.02,5.00,5.00,5.01,5.00,4.99,4.98,4.99,4.99,4.96,4.96,4.96,4.95,4.95,4.94,4.95,4.95,4.94,4.93,4.94,4.93,4.92,4.91,4.92,4.92,4.92,4.90,4.91,4.92,4.91,4.90,4.89,4.91,4.90,4.90,4.89,4.90,4.89,4.89,4.88,4.91,4.92,4.91,4.91,4.93,4.94,4.94,4.95,4.95,4.95,4.95,4.94,4.94,4.95,4.93,4.93,4.93,4.95,5.10,5.52,5.89,5.66,5.33,5.26,5.22,5.18,5.09,4.93,4.68,4.37,4.01,3.62,3.23,2.92,2.70,2.50,2.34,2.20,2.09,2.00,1.99,1.94,1.93,1.91,1.90,1.90,1.91,1.94,1.97,2.06,2.22,2.41,2.62,2.89,3.25,3.59,3.91,4.22,4.54,4.84,5.07,5.26,5.46,5.61,5.71,5.73,5.83,5.89,5.93,5.97,6.02,6.07,6.12,6.15,6.19,6.24,6.29,6.33,6.37,6.42,6.48,6.52,6.55,6.61,6.67,6.71,6.74,6.78,6.82,6.86,6.88,6.91,6.95,6.96,6.95,6.95,6.95,6.93,6.88,6.83,6.78,6.72,6.65,6.56,6.49,6.40,6.30,6.20,6.12,6.05,5.96,5.87,5.79,5.72,5.65,5.62,5.50,5.46,5.41,5.35,5.30,5.28,5.23,5.20,5.16,5.15,5.14,5.10,5.08,5.08,5.08,5.06,5.04,5.03,5.04,5.02,5.01,5.00,5.02,5.00,5.00,5.00,5.01,5.01,5.00,5.00,5.02,5.00,5.01,5.00,5.01,5.02,5.02,5.02,5.02,5.04,5.03,5.01,5.02,5.03,5.02,5.01,5.02,5.04,5.02
5.02,5.01,5.02,5.01,5.00,4.99,5.00,4.99,4.98,4.97,4.98,4.97,4.96,4.95,4.96,4.96,4.96,4.94,4.94,4.95,4.93,4.93,4.92,4.95,4.93,4.93,4.92,4.92,4.93,4.92,4.92,4.92,4.92,4.91,4.90,4.92,4.92,4.91,4.90,4.91,4.92,4.90,4.90,4.91,4.91,4.90,4.89,4.90,4.92,4.90,4.91,4.90,4.91,4.92,4.90,4.92,4.95,5.00,5.27,5.81,5.91,5.54,5.37,5.33,5.27,5.21,5.11,4.90,4.64,4.31,3.94,3.53,3.16,2.88,2.62,2.55,2.30,2.18,2.06,1.98,1.94,1.94,1.92,1.90,1.89,1.91,1.92,1.93,1.97,2.05,2.20,2.39,2.65,3.01,3.42,3.78,4.12,4.47,4.77,5.03,5.10,5.47,5.64,5.72,5.79,5.83,5.89,5.94,5.97,6.01,6.06,6.08,6.10,6.12,6.17,6.21,6.24,6.26,6.30,6.35,6.37,6.41,6.46,6.51,6.55,6.56,6.63,6.69,6.72,6.75,6.79,6.85,6.88,6.91,6.93,6.95,6.96,6.95,6.94,6.93,6.91,6.86,6.80,6.75,6.68,6.61,6.52,6.43,6.36,6.25,6.21,6.05,5.96,5.87,5.78,5.69,5.64,5.56,5.49,5.43,5.39,5.36,5.30,5.26,5.24,5.22,5.17,5.17,5.16,5.16,5.14,5.14,5.14,5.15,5.13,5.13,5.12,5.13,5.12,5.12,5.11,5.14,5.13,5.12,5.12,5.13,5.13,5.12,5.11,5.11,5.13,5.12,5.10,5.11,5.13,5.11,5.08,5.10,5.10,5.09,5.07,5.06,5.07,5.07,5.05,5.05,5.06,5.05,5.03,5.02
5.03,5.02,5.01,4.99,4.99,5.00,4.98,4.98,4.98,4.99,4.98,4.97,4.97,4.98,4.96,4.95,4.96,4.96,4.95,4.96,4.94,4.95,4.96,4.94,4.94,4.94,4.95,4.94,4.94,4.94,4.95,4.95,4.93,4.94,4.95,4.94,4.93,4.93,4.94,4.94,4.93,4.93,4.94,4.94,4.93,4.92,4.94,4.94,4.94,4.95,5.03,5.23,5.74,5.95,5.60,5.39,5.33,5.25,5.19,5.09,4.88,4.59,4.23,3.85,3.44,3.31,2.77,2.56,2.40,2.26,2.12,2.03,1.97,1.94,1.90,1.90,1.90,1.90,1.90,1.93,1.98,2.06,2.21,2.42,2.71,3.06,3.45,3.84,4.21,4.56,4.67,5.16,5.41,5.61,5.74,5.83,5.89,5.95,5.97,6.00,6.05,6.08,6.10,6.13,6.18,6.24,6.26,6.29,6.34,6.37,6.41,6.44,6.48,6.52,6.56,6.57,6.63,6.68,6.72,6.74,6.79,6.84,6.87,6.89,6.92,6.96,6.98,6.98,6.97,6.97,6.95,6.92,6.87,6.83,6.78,6.70,6.61,6.52,6.43,6.32,6.28,6.11,6.03,5.93,5.83,5.75,5.69,5.61,5.54,5.48,5.44,5.40,5.35,5.30,5.28,5.25,5.23,5.20,5.19,5.20,5.18,5.15,5.16,5.16,5.14,5.14,5.13,5.14,5.13,5.12,5.12,5.14,5.13,5.13,5.12,5.14,5.14,5.12,5.11,5.12,5.12,5.12,5.11,5.12,5.12,5.11,5.10,5.10,5.10,5.09,5.09,5.06,5.07,5.06,5.04,5.04,5.04,5.05,5.03,5.01,5.01,5.01,5.00,5.00,4.99,5.00,4.98,4.98,4.99,4.98
4.98,4.97,4.96,4.97,4.96,4.96,4.95,4.97,4.96,4.95,4.93,4.95,4.95,4.93,4.92,4.94,4.94,4.93,4.92,4.92,4.94,4.94,4.92,4.93,4.94,4.93,4.92,4.93,4.94,4.92,4.91,4.92,4.94,4.94,4.92,4.91,4.93,4.95,4.95,5.01,5.31,5.84,5.85,5.48,5.33,5.26,5.13,4.93,4.69,4.41,4.03,3.68,3.40,3.17,2.90,2.80,2.37,2.23,2.10,1.98,1.94,1.92,1.90,1.87,1.86,1.88,1.89,1.91,1.96,2.08,2.27,2.48,2.75,3.10,3.46,3.83,4.17,4.50,4.81,5.08,5.15,5.52,5.68,5.77,5.82,5.87,5.96,6.00,6.03,6.07,6.13,6.17,6.21,6.23,6.28,6.32,6.34,6.38,6.42,6.47,6.50,6.51,6.56,6.59,6.62,6.62,6.67,6.71,6.73,6.75,6.79,6.84,6.88,6.88,6.89,6.90,6.90,6.88,6.84,6.83,6.78,6.70,6.63,6.57,6.49,6.39,6.30,6.21,6.12,6.02,5.97,5.81,5.74,5.66,5.57,5.50,5.45,5.40,5.34,5.30,5.27,5.24,5.21,5.18,5.18,5.17,5.14,5.13,5.13,5.14,5.13,5.12,5.13,5.13,5.13,5.13,5.12,5.13,5.13,5.12,5.12,5.14,5.14,5.12,5.12,5.13,5.13,5.13,5.12,5.12,5.13,5.13,5.11,5.11,5.12,5.10,5.08,5.08,5.09,5.07,5.07,5.06,5.07,5.07,5.04,5.03,5.05,5.04,5.02,5.01,5.01,5.02,5.00,4.99,5.00,5.00,4.98,4.98,4.98,4.99,4.98,4.96,4.97,4.98,4.96,4.96,4.96,4.97,4.96,4.95
4.95,4.96,4.96,4.94,4.94,4.94,4.95,4.93,4.94,4.94,4.95,4.94,4.92,4.93,4.94,4.93,4.92,4.92,4.94,4.94,4.93,4.93,4.94,4.94,4.93,4.93,4.95,4.96,4.95,4.98,5.15,5.59,5.87,5.64,5.43,5.36,5.30,5.24,5.18,5.06,4.86,4.56,4.22,3.86,3.49,3.36,2.87,2.65,2.49,2.35,2.19,2.08,1.99,1.94,1.91,1.91,1.90,1.87,1.87,1.88,1.90,1.92,1.95,2.04,2.20,2.36,2.56,2.83,3.16,3.50,3.61,4.17,4.49,4.79,5.02,5.24,5.45,5.64,5.74,5.83,5.90,5.95,5.99,6.02,6.08,6.11,6.15,6.17,6.21,6.25,6.28,6.29,6.33,6.37,6.41,6.42,6.48,6.52,6.55,6.59,6.63,6.68,6.71,6.74,6.78,6.83,6.87,6.89,6.93,6.97,7.00,7.02,7.03,7.03,7.05,7.04,7.01,7.00,6.98,6.93,6.92,6.82,6.76,6.69,6.60,6.51,6.45,6.35,6.24,6.14,6.07,5.98,5.88,5.80,5.73,5.67,5.58,5.51,5.45,5.41,5.34,5.29,5.25,5.25,5.20,5.19,5.17,5.19,5.18,5.17,5.16,5.16,5.16,5.14,5.13,5.15,5.15,5.14,5.13,5.14,5.14,5.13,5.13,5.15,5.15,5.15,5.13,5.14,5.15,5.15,5.14,5.14,5.15,5.14,5.12,5.13,5.14,5.14,5.12,5.12,5.11,5.11,5.09,5.09,5.09,5.09,5.07,5.06,5.07,5.07,5.06,5.04,5.05,5.06,5.05,5.04,5.03,5.04,5.03,5.03,5.01,5.02,5.02,5.01,5.02,5.01,5.02,5.01,5.01,5.02
5.02,5.00,4.99,5.00,5.01,5.00,5.00,5.00,5.02,5.01,5.00,5.00,5.01,5.00,4.99,4.99,5.00,5.00,5.00,5.00,5.01,5.01,4.99,4.99,5.00,5.01,5.00,4.99,4.99,5.01,5.00,4.97,5.00,5.00,5.01,5.00,5.01,5.03,5.09,5.25,5.70,5.96,5.73,5.50,5.43,5.39,5.34,5.24,5.11,4.91,4.62,4.26,3.88,3.51,3.16,2.86,2.63,2.47,2.36,2.24,2.19,2.04,2.01,1.97,1.93,1.92,1.92,1.93,1.91,1.92,1.94,1.99,2.04,2.16,2.34,2.55,2.80,3.12,3.49,3.82,4.15,4.47,4.79,5.06,5.28,5.34,5.68,5.83,5.91,5.96,6.02,6.08,6.13,6.15,6.18,6.23,6.26,6.29,6.32,6.37,6.41,6.44,6.48,6.53,6.57,6.61,6.65,6.71,6.76,6.80,6.81,6.88,6.93,6.97,7.00,7.05,7.08,7.12,7.13,7.15,7.17,7.18,7.17,7.15,7.15,7.12,7.07,7.01,6.95,6.89,6.81,6.72,6.65,6.57,6.46,6.42,6.26,6.18,6.09,5.98,5.90,5.84,5.76,5.69,5.62,5.58,5.52,5.46,5.42,5.38,5.35,5.32,5.28,5.27,5.25,5.23,5.20,5.20,5.19,5.18,5.18,5.17,5.17,5.16,5.15,5.15,5.15,5.16,5.15,5.14,5.15,5.16,5.15,5.14,5.14,5.15,5.15,5.15,5.16,5.18,5.19,5.17,5.20,5.21,5.20,5.20,5.18,5.20,5.19,5.18,5.18,5.18,5.17,5.15,5.13,5.12,5.10,5.09,5.06,5.06,5.05,5.04,5.00,5.00,5.02,5.02,5.02,5.02,5.02,5.01
5.01,4.99,5.00,5.00,4.99,4.99,5.00,5.00,4.99,4.98,4.98,4.99,4.98,4.96,4.97,4.98,4.96,4.95,4.96,4.96,4.96,4.94,4.95,4.97,4.95,4.94,4.95,4.96,4.95,4.93,4.93,4.95,4.96,4.94,4.93,4.97,4.97,4.95,4.94,4.96,4.97,4.95,4.95,4.99,5.07,5.26,5.77,6.05,5.76,5.47,5.42,5.33,5.29,5.21,5.08,4.87,4.60,4.26,3.86,3.44,3.04,2.72,2.51,2.36,2.28,2.18,2.05,1.97,1.94,1.90,1.89,1.85,1.86,1.88,1.88,1.88,1.95,2.05,2.18,2.35,2.58,2.85,3.15,3.48,3.82,4.12,4.42,4.72,4.96,5.19,5.39,5.55,5.71,5.82,5.91,5.96,6.01,6.07,6.12,6.18,6.19,6.29,6.34,6.38,6.42,6.49,6.55,6.60,6.65,6.71,6.78,6.84,6.89,6.93,7.00,7.05,7.09,7.11,7.16,7.20,7.21,7.21,7.23,7.23,7.21,7.20,7.13,7.09,7.03,6.93,6.86,6.78,6.68,6.58,6.48,6.40,6.31,6.20,6.11,6.04,5.96,5.88,5.79,5.74,5.67,5.60,5.53,5.49,5.46,5.40,5.37,5.32,5.30,5.27,5.24,5.22,5.21,5.20,5.17,5.17,5.16,5.16,5.13,5.12,5.12,5.11,5.10,5.09,5.10,5.10,5.09,5.09,5.09,5.09,5.10,5.10,5.09,5.09,5.09,5.08,5.08,5.09,5.09,5.08,5.08,5.09,5.09,5.07,5.07,5.08,5.08,5.07,5.06,5.07,5.08,5.07,5.06,5.07,5.08,5.07,5.07,5.07,5.09,5.10,5.08,5.07,5.07,5.06,5.03,5.01
5.02,5.02,4.99,4.96,4.94,4.93,4.92,4.90,4.92,4.95,4.95,4.94,4.95,4.95,4.95,4.95,4.94,4.94,4.94,4.93,4.94,4.94,4.95,4.93,4.93,4.94,4.95,4.93,4.93,4.92,4.94,4.93,4.93,4.93,4.94,4.95,4.94,4.95,4.97,4.99,5.01,5.46,6.02,6.00,5.60,5.44,5.41,5.35,5.29,5.21,5.09,4.87,4.57,4.23,3.88,3.53,3.17,2.91,2.71,2.55,2.39,2.22,2.08,2.02,1.96,1.94,1.89,1.87,1.85,1.83,1.85,1.89,1.94,2.03,2.16,2.35,2.53,2.73,2.98,3.30,3.62,3.92,4.22,4.52,4.80,5.03,5.21,5.41,5.59,5.71,5.74,5.84,5.91,5.95,5.99,6.04,6.09,6.13,6.15,6.19,6.25,6.28,6.31,6.36,6.41,6.46,6.50,6.54,6.60,6.65,6.70,6.74,6.80,6.85,6.88,6.89,6.96,7.00,7.04,7.05,7.06,7.08,7.09,7.06,7.04,7.02,6.98,6.92,6.87,6.81,6.75,6.66,6.57,6.48,6.40,6.30,6.21,6.13,6.05,5.96,5.92,5.79,5.73,5.65,5.59,5.53,5.49,5.44,5.39,5.35,5.33,5.29,5.25,5.22,5.21,5.19,5.16,5.14,5.13,5.14,5.12,5.10,5.09,5.10,5.09,5.08,5.07,5.08,5.07,5.07,5.07,5.08,5.08,5.07,5.06,5.08,5.08,5.07,5.06,5.08,5.08,5.08,5.06,5.09,5.09,5.09,5.06,5.08,5.09,5.07,5.06,5.06,5.07,5.06,5.05,5.05,5.05,5.04,5.03,5.02,5.03,5.04,5.03,5.01,5.03,5.04,5.03,5.03,5.05,5.05
5.03,5.00,4.99,4.99,4.97,4.97,4.93,4.93,4.91,4.88,4.88,4.89,4.90,4.91,4.92,4.91,4.92,4.90,4.90,4.92,4.92,4.91,4.91,4.91,4.94,4.93,4.91,4.91,4.92,4.92,4.91,4.92,4.94,4.92,4.94,4.94,5.03,5.28,5.79,5.94,5.59,5.40,5.35,5.30,5.27,5.19,5.04,4.78,4.47,4.12,3.75,3.37,3.06,2.82,2.65,2.61,2.37,2.23,2.09,1.99,1.94,1.90,1.86,1.84,1.83,1.85,1.85,1.86,1.93,2.04,2.19,2.37,2.58,2.87,3.21,3.55,3.87,4.21,4.56,4.84,4.93,5.32,5.52,5.69,5.80,5.88,5.96,6.01,6.05,6.09,6.16,6.21,6.24,6.28,6.34,6.39,6.41,6.46,6.53,6.58,6.63,6.68,6.74,6.81,6.84,6.85,6.94,7.00,7.03,7.05,7.10,7.13,7.16,7.17,7.17,7.18,7.16,7.12,7.08,7.04,7.00,6.91,6.83,6.76,6.67,6.57,6.47,6.37,6.28,6.17,6.13,5.98,5.90,5.80,5.71,5.65,5.60,5.55,5.47,5.43,5.40,5.36,5.31,5.29,5.26,5.24,5.20,5.17,5.17,5.15,5.14,5.12,5.13,5.12,5.11,5.10,5.10,5.10,5.10,5.08,5.09,5.09,5.10,5.09,5.08,5.09,5.10,5.08,5.08,5.10,5.10,5.09,5.08,5.10,5.10,5.10,5.08,5.09,5.09,5.09,5.09,5.08,5.08,5.08,5.06,5.07,5.07,5.07,5.05,5.05,5.04,5.05,5.02,5.02,5.03,5.03,5.00,5.00,5.01,5.00,5.00,4.98,5.00,4.99,4.99,4.98,4.98,4.98,4.98,4.97
4.96,4.97,4.97,4.95,4.94,4.95,4.95,4.95,4.94,4.95,4.97,4.94,4.94,4.95,4.96,4.95,4.94,4.94,4.96,4.95,4.95,4.96,4.98,4.99,4.99,5.01,5.02,5.04,5.07,5.19,5.64,6.08,5.90,5.56,5.44,5.37,5.28,5.16,5.02,4.80,4.47,4.09,3.71,3.34,2.97,2.87,2.47,2.32,2.19,2.05,1.96,1.92,1.89,1.85,1.83,1.83,1.84,1.84,1.86,1.89,1.97,2.06,2.21,2.40,2.61,2.85,3.15,3.51,3.86,4.18,4.28,4.78,5.05,5.28,5.48,5.66,5.79,5.87,5.93,5.99,6.05,6.10,6.13,6.17,6.23,6.27,6.31,6.35,6.40,6.44,6.48,6.51,6.57,6.62,6.65,6.65,6.74,6.80,6.83,6.86,6.90,6.95,6.98,7.01,7.03,7.07,7.08,7.08,7.09,7.08,7.07,7.03,6.98,6.95,6.90,6.82,6.73,6.66,6.57,6.47,6.43,6.28,6.19,6.08,5.97,5.90,5.83,5.74,5.65,5.59,5.53,5.49,5.42,5.38,5.35,5.32,5.28,5.25,5.24,5.21,5.18,5.15,5.16,5.15,5.13,5.13,5.12,5.12,5.12,5.11,5.11,5.12,5.11,5.09,5.10,5.11,5.11,5.11,5.11,5.12,5.12,5.12,5.11,5.12,5.12,5.11,5.11,5.11,5.11,5.11,5.10,5.09,5.10,5.10,5.08,5.07,5.08,5.09,5.06,5.05,5.05,5.06,5.04,5.03,5.03,5.04,5.03,5.01,5.01,5.02,5.00,4.98,5.00,5.01,4.99,4.99,4.99,5.00,4.98,4.97,4.96,4.97,4.96,4.96,4.96,4.97,4.96,4.95,4.95,4.96
4.96,4.95,4.94,4.96,4.97,4.95,4.94,4.95,4.97,4.95,4.95,4.95,4.95,4.95,4.95,4.94,4.95,4.96,4.95,4.96,4.98,5.02,5.21,5.76,6.09,5.75,5.46,5.40,5.35,5.28,5.16,4.96,4.65,4.29,3.87,3.74,3.05,2.75,2.50,2.32,2.18,2.04,1.95,1.89,1.87,1.85,1.85,1.83,1.83,1.85,1.87,1.88,1.98,2.14,2.34,2.56,2.86,3.26,3.64,3.99,4.09,4.67,4.97,5.21,5.41,5.62,5.74,5.83,5.86,5.91,5.98,6.04,6.08,6.11,6.17,6.19,6.21,6.23,6.28,6.32,6.34,6.37,6.42,6.48,6.50,6.51,6.57,6.62,6.64,6.68,6.72,6.78,6.81,6.85,6.87,6.91,6.94,6.95,6.97,6.98,6.98,6.95,6.92,6.89,6.84,6.77,6.69,6.63,6.55,6.45,6.41,6.25,6.17,6.07,5.96,5.86,5.79,5.71,5.61,5.56,5.51,5.45,5.39,5.35,5.33,5.30,5.27,5.24,5.24,5.23,5.21,5.19,5.20,5.20,5.19,5.18,5.17,5.18,5.18,5.16,5.17,5.17,5.18,5.17,5.16,5.18,5.18,5.17,5.17,5.18,5.18,5.16,5.16,5.16,5.17,5.15,5.14,5.14,5.15,5.14,5.13,5.12,5.12,5.12,5.08,5.10,5.10,5.09,5.07,5.06,5.07,5.06,5.04,5.03,5.05,5.04,5.03,5.02,5.01,5.03,5.02,5.00,5.01,5.01,5.01,4.99,4.99,5.00,5.00,4.99,4.99,5.00,5.00,4.98,4.98,4.99,4.98,4.97,4.96,4.98,4.98,4.97,4.97,4.98,4.98,4.98,4.97,4.98,4.97,4.96
4.96,4.97,4.98,4.97,4.98,4.98,4.98,4.99,4.98,5.00,5.09,5.37,5.90,6.00,5.64,5.45,5.38,5.31,5.26,5.16,4.96,4.65,4.30,3.89,3.45,3.32,2.76,2.53,2.37,2.22,2.07,1.98,1.91,1.87,1.86,1.85,1.86,1.85,1.84,1.87,1.89,1.93,2.05,2.24,2.46,2.75,3.09,3.48,3.85,4.20,4.30,4.86,5.12,5.36,5.57,5.74,5.86,5.94,6.01,6.08,6.14,6.18,6.23,6.28,6.33,6.36,6.40,6.41,6.46,6.50,6.50,6.53,6.57,6.60,6.62,6.63,6.69,6.73,6.77,6.79,6.84,6.90,6.95,6.96,6.98,7.03,7.05,7.04,7.04,7.05,7.05,7.02,6.97,6.95,6.90,6.83,6.75,6.69,6.61,6.51,6.48,6.33,6.23,6.14,6.03,5.94,5.86,5.77,5.68,5.60,5.54,5.48,5.42,5.36,5.34,5.30,5.28,5.24,5.22,5.22,5.19,5.17,5.17,5.16,5.16,5.16,5.14,5.16,5.15,5.13,5.15,5.16,5.15,5.14,5.14,5.15,5.16,5.15,5.14,5.16,5.16,5.16,5.13,5.15,5.16,5.14,5.14,5.14,5.15,5.12,5.12,5.12,5.12,5.11,5.10,5.09,5.09,5.10,5.06,5.06,5.08,5.07,5.04,5.04,5.05,5.03,5.03,5.02,5.03,5.02,5.01,5.01,5.01,5.01,5.00,4.99,4.99,5.00,5.00,4.98,4.98,4.99,4.99,4.98,4.97,4.98,4.97,4.96,4.95,4.97,4.97,4.95,4.95,4.96,4.97,4.95,4.96,4.96,4.97,4.96,4.95,4.96,4.96,4.97,4.96,4.95,4.96,4.97,4.95,4.95
4.96,4.95,4.95,4.96,4.97,4.97,4.99,5.05,5.27,5.76,6.05,5.79,5.52,5.43,5.32,5.28,5.12,4.96,4.72,4.44,4.12,3.83,3.55,3.32,3.12,2.87,2.59,2.38,2.24,2.13,2.02,1.93,1.89,1.87,1.86,1.84,1.82,1.83,1.85,1.87,1.87,2.00,2.16,2.34,2.55,2.82,3.15,3.47,3.79,4.13,4.43,4.70,4.95,5.18,5.42,5.59,5.71,5.79,5.85,5.92,5.96,5.99,6.04,6.08,6.10,6.11,6.16,6.19,6.22,6.24,6.28,6.32,6.35,6.36,6.40,6.46,6.50,6.53,6.57,6.63,6.66,6.70,6.72,6.76,6.79,6.82,6.84,6.87,6.89,6.90,6.89,6.90,6.91,6.91,6.88,6.88,6.87,6.85,6.81,6.78,6.73,6.66,6.58,6.51,6.45,6.36,6.26,6.17,6.08,6.01,5.92,5.82,5.75,5.68,5.61,5.58,5.49,5.45,5.39,5.33,5.30,5.28,5.25,5.21,5.19,5.18,5.17,5.15,5.14,5.15,5.14,5.12,5.13,5.14,5.13,5.12,5.11,5.12,5.13,5.13,5.12,5.13,5.13,5.15,5.13,5.14,5.15,5.16,5.14,5.14,5.16,5.16,5.14,5.13,5.14,5.15,5.12,5.12,5.13,5.13,5.12,5.09,5.10,5.10,5.09,5.09,5.09,5.09,5.08,5.06,5.06,5.07,5.05,5.04,5.03,5.05,5.05,5.03,5.01,5.02,5.02,5.00,5.00,5.01,5.01,5.01,5.00,5.00,5.00,5.00,4.99,4.98,4.99,4.98,4.98,4.98,4.98,4.99,4.96,4.96,4.99,4.97,4.96,4.96,4.97,4.97,4.95,4.95,4.96,4.96
4.95,4.95,4.96,4.97,4.96,4.96,4.96,4.96,4.96,4.95,4.96,4.98,4.97,4.97,4.96,4.98,4.99,5.00,5.11,5.44,5.97,6.01,5.63,5.45,5.40,5.32,5.26,5.18,5.03,4.74,4.64,4.00,3.61,3.22,2.90,2.65,2.46,2.31,2.16,2.03,1.95,1.91,1.87,1.85,1.84,1.83,1.81,1.82,1.85,1.87,1.90,1.97,2.13,2.32,2.57,2.65,3.21,3.57,3.91,4.26,4.61,4.93,5.19,5.43,5.64,5.80,5.90,5.95,6.01,6.08,6.13,6.14,6.18,6.23,6.27,6.29,6.33,6.37,6.41,6.44,6.45,6.51,6.55,6.59,6.61,6.66,6.69,6.73,6.77,6.80,6.85,6.89,6.92,6.95,6.99,7.02,7.05,7.06,7.09,7.11,7.11,7.10,7.09,7.06,7.02,7.00,6.90,6.85,6.77,6.67,6.59,6.50,6.40,6.29,6.20,6.11,6.03,5.92,5.84,5.78,5.70,5.61,5.56,5.52,5.47,5.42,5.39,5.37,5.35,5.32,5.30,5.29,5.28,5.27,5.24,5.25,5.24,5.22,5.20,5.19,5.19,5.16,5.13,5.12,5.12,5.12,5.11,5.09,5.10,5.11,5.12,5.11,5.13,5.13,5.13,5.12,5.12,5.13,5.13,5.12,5.12,5.12,5.12,5.11,5.10,5.11,5.11,5.08,5.07,5.08,5.08,5.07,5.05,5.06,5.05,5.05,5.03,5.04,5.03,5.02,5.01,5.02,5.02,5.01,4.98,5.00,5.01,5.01,4.99,4.99,5.00,5.00,4.98,4.98,4.98,4.98,4.98,4.98,4.98,4.99,4.98,4.96,4.98,4.98,4.97,4.96,4.97,4.98,4.97,4.96
4.97,4.97,4.98,4.95,4.96,4.98,4.97,4.95,4.95,4.96,4.97,4.96,4.96,4.97,4.98,4.97,4.96,4.98,4.98,5.01,5.01,5.43,5.96,5.85,5.50,5.39,5.35,5.27,5.14,4.96,4.67,4.30,3.90,3.50,3.10,2.79,2.55,2.38,2.29,2.19,2.05,1.95,1.91,1.89,1.84,1.82,1.82,1.82,1.84,1.84,1.90,1.99,2.12,2.31,2.55,2.84,3.18,3.54,3.90,4.25,4.58,4.87,5.11,5.34,5.55,5.70,5.82,5.90,5.96,6.01,6.03,6.10,6.16,6.20,6.23,6.28,6.33,6.37,6.40,6.44,6.51,6.55,6.60,6.64,6.70,6.75,6.80,6.85,6.90,6.95,6.99,7.03,7.07,7.11,7.14,7.14,7.16,7.17,7.18,7.15,7.14,7.10,7.06,6.99,6.94,6.87,6.79,6.70,6.60,6.52,6.42,6.32,6.22,6.14,6.05,5.96,5.87,5.80,5.74,5.67,5.64,5.54,5.51,5.45,5.39,5.37,5.35,5.31,5.27,5.26,5.24,5.22,5.20,5.17,5.18,5.16,5.13,5.13,5.14,5.12,5.12,5.11,5.12,5.12,5.11,5.10,5.11,5.11,5.10,5.09,5.09,5.11,5.11,5.09,5.11,5.11,5.12,5.10,5.11,5.11,5.12,5.09,5.10,5.10,5.11,5.12,5.11,5.13,5.14,5.14,5.14,5.14,5.14,5.13,5.13,5.13,5.13,5.11,5.10,5.08,5.08,5.06,5.02,5.01,5.00,5.00,4.98,4.97,4.99,5.01,4.99,4.97,4.98,4.99,4.97,4.97,4.96,4.97,4.98,4.96,4.96,4.97,4.97,4.95,4.95,4.96,4.96,4.95,4.95,4.97
4.96,4.94,4.95,4.96,4.97,4.96,4.94,4.96,4.97,4.96,4.95,4.98,5.00,5.07,5.40,5.93,5.85,5.51,5.41,5.38,5.34,5.30,5.19,5.00,4.75,4.39,3.99,3.60,3.22,2.94,2.71,2.54,2.41,2.26,2.10,2.05,1.96,1.93,1.89,1.86,1.86,1.86,1.87,1.88,1.94,2.06,2.20,2.37,2.59,2.82,3.12,3.45,3.79,4.13,4.46,4.77,5.01,5.23,5.43,5.61,5.67,5.84,5.92,5.97,6.02,6.08,6.12,6.17,6.20,6.24,6.31,6.35,6.38,6.42,6.49,6.55,6.58,6.63,6.70,6.75,6.79,6.83,6.89,6.94,6.98,6.99,7.07,7.11,7.14,7.15,7.17,7.18,7.19,7.17,7.15,7.13,7.09,7.03,6.96,6.91,6.81,6.72,6.63,6.54,6.44,6.34,6.24,6.16,6.07,5.98,5.94,5.81,5.75,5.68,5.61,5.55,5.52,5.47,5.42,5.39,5.36,5.33,5.30,5.27,5.26,5.25,5.23,5.20,5.20,5.20,5.17,5.16,5.16,5.16,5.14,5.13,5.14,5.15,5.14,5.13,5.15,5.15,5.15,5.14,5.14,5.16,5.15,5.14,5.14,5.15,5.15,5.14,5.14,5.16,5.16,5.15,5.13,5.14,5.15,5.13,5.12,5.13,5.12,5.12,5.10,5.11,5.10,5.10,5.08,5.08,5.08,5.07,5.06,5.05,5.07,5.06,5.05,5.05,5.05,5.05,5.04,5.02,5.04,5.03,5.03,5.02,5.02,5.03,5.01,5.00,5.01,5.02,5.02,5.00,5.00,5.02,5.02,5.04,5.04,5.06,5.07,5.05,5.06,5.05,5.05,5.06,5.04,5.04,5.04,5.02
5.01,5.02,5.03,5.04,5.21,5.70,5.93,5.62,5.42,5.38,5.35,5.27,5.16,4.97,4.70,4.34,3.95,3.57,3.18,2.87,2.63,2.46,2.33,2.19,2.07,2.03,1.97,1.95,1.91,1.89,1.89,1.90,1.90,1.91,1.95,2.06,2.18,2.35,2.55,2.81,3.12,3.47,3.83,4.18,4.51,4.81,5.08,5.33,5.56,5.73,5.77,5.93,6.00,6.05,6.09,6.16,6.21,6.25,6.29,6.33,6.39,6.44,6.47,6.53,6.59,6.63,6.67,6.71,6.78,6.82,6.87,6.91,6.96,7.01,7.05,7.06,7.12,7.15,7.18,7.18,7.19,7.19,7.18,7.15,7.13,7.09,7.03,6.96,6.90,6.82,6.72,6.62,6.52,6.44,6.33,6.22,6.12,6.03,5.96,5.87,5.84,5.73,5.66,5.59,5.53,5.48,5.44,5.39,5.35,5.32,5.30,5.27,5.24,5.21,5.22,5.20,5.18,5.17,5.16,5.16,5.14,5.12,5.13,5.14,5.13,5.12,5.12,5.13,5.12,5.11,5.12,5.12,5.12,5.12,5.12,5.13,5.13,5.12,5.13,5.14,5.14,5.12,5.12,5.13,5.14,5.13,5.11,5.13,5.13,5.13,5.12,5.11,5.11,5.10,5.08,5.09,5.08,5.07,5.06,5.06,5.07,5.06,5.05,5.04,5.06,5.05,5.02,5.03,5.03,5.03,5.02,5.02,5.02,5.03,5.02,5.01,5.01,5.01,5.01,5.00,4.99,5.01,5.00,4.99,5.00,4.99,5.00,4.98,4.99,5.01,5.00,4.98,4.98,4.99,5.00,4.99,4.97,4.99,5.00,4.99,4.99,4.98,4.99,4.99,4.99,5.04,5.12,5.42,5.90,5.93
5.62,5.46,5.39,5.33,5.27,5.15,4.95,4.67,4.35,4.01,3.62,3.24,2.95,2.68,2.47,2.41,2.19,2.06,1.98,1.93,1.92,1.90,1.89,1.88,1.87,1.91,1.91,1.93,1.99,2.11,2.26,2.46,2.74,3.06,3.42,3.75,4.09,4.43,4.74,4.98,5.05,5.44,5.63,5.75,5.82,5.90,5.95,5.99,6.03,6.07,6.12,6.15,6.17,6.21,6.24,6.28,6.29,6.33,6.38,6.42,6.44,6.47,6.52,6.58,6.61,6.62,6.69,6.74,6.78,6.81,6.85,6.90,6.92,6.94,6.96,7.00,7.02,7.00,7.00,7.00,6.98,6.93,6.89,6.85,6.78,6.70,6.61,6.54,6.44,6.35,6.31,6.16,6.09,5.97,5.88,5.81,5.74,5.66,5.58,5.54,5.49,5.44,5.39,5.36,5.35,5.32,5.27,5.25,5.25,5.24,5.23,5.21,5.22,5.22,5.22,5.21,5.21,5.22,5.21,5.19,5.19,5.21,5.20,5.19,5.19,5.20,5.20,5.19,5.18,5.20,5.19,5.18,5.17,5.18,5.19,5.17,5.16,5.17,5.17,5.16,5.15,5.15,5.15,5.14,5.11,5.12,5.12,5.11,5.09,5.09,5.11,5.10,5.09,5.08,5.08,5.08,5.06,5.05,5.06,5.06,5.04,5.05,5.05,5.06,5.03,5.04,5.04,5.05,5.04,5.04,5.03,5.04,5.03,5.02,5.02,5.03,5.03,5.02,5.01,5.04,5.03,5.02,5.01,5.02,5.03,5.02,5.01,5.03,5.03,5.02,5.02,5.02,5.02,5.02,5.01,5.02,5.03,5.03,5.05,5.10,5.33,5.88,6.11,5.75,5.52,5.47,5.41,5.36,5.29,5.14
4.91,4.60,4.26,3.88,3.50,3.37,2.89,2.67,2.51,2.34,2.20,2.10,2.03,1.99,1.98,1.97,1.96,1.95,1.96,1.99,2.02,2.09,2.23,2.41,2.65,2.93,3.29,3.68,4.06,4.40,4.50,5.03,5.28,5.49,5.69,5.86,5.95,6.00,6.03,6.07,6.13,6.14,6.16,6.19,6.23,6.26,6.26,6.30,6.35,6.40,6.44,6.47,6.52,6.55,6.59,6.60,6.67,6.73,6.74,6.78,6.83,6.88,6.91,6.93,6.96,7.01,7.02,7.04,7.05,7.07,7.06,7.04,7.02,7.01,6.97,6.91,6.85,6.79,6.70,6.61,6.57,6.43,6.34,6.24,6.13,6.04,5.97,5.88,5.80,5.73,5.67,5.61,5.54,5.50,5.45,5.42,5.38,5.35,5.34,5.32,5.29,5.27,5.27,5.27,5.26,5.25,5.24,5.25,5.24,5.22,5.22,5.24,5.24,5.22,5.23,5.25,5.24,5.22,5.23,5.24,5.24,5.22,5.23,5.23,5.23,5.22,5.21,5.22,5.23,5.21,5.20,5.21,5.21,5.20,5.18,5.18,5.18,5.17,5.15,5.15,5.16,5.15,5.13,5.12,5.13,5.13,5.09,5.10,5.11,5.09,5.08,5.08,5.09,5.09,5.08,5.08,5.07,5.07,5.07,5.05,5.05,5.06,5.05,5.04,5.04,5.05,5.04,5.04,5.04,5.06,5.05,5.03,5.02,5.03,5.04,5.02,5.02,5.04,5.05,5.03,5.03,5.03,5.04,5.03,5.02,5.03,5.03,5.04,5.03,5.03,5.05,5.05,5.05,5.08,5.15,5.45,5.99,6.03,5.67,5.49,5.41,5.30,5.21,5.04,4.82,4.75,4.27,3.98,3.73,3.49
3.27,3.01,2.70,2.47,2.32,2.21,2.11,2.03,2.00,2.00,1.97,1.95,1.96,1.99,2.02,2.05,2.15,2.32,2.52,2.78,2.86,3.50,3.87,4.21,4.52,4.84,5.10,5.36,5.56,5.74,5.84,5.91,5.96,6.01,6.07,6.11,6.14,6.18,6.22,6.26,6.29,6.32,6.39,6.41,6.45,6.45,6.53,6.57,6.60,6.62,6.68,6.73,6.75,6.77,6.81,6.85,6.87,6.89,6.91,6.94,6.96,6.96,6.97,6.99,7.01,7.01,7.01,6.99,6.96,6.90,6.88,6.79,6.74,6.65,6.57,6.48,6.40,6.32,6.22,6.13,6.06,5.98,5.89,5.82,5.76,5.70,5.61,5.56,5.51,5.47,5.41,5.37,5.35,5.32,5.28,5.27,5.26,5.25,5.23,5.21,5.22,5.22,5.22,5.19,5.19,5.21,5.21,5.18,5.19,5.20,5.21,5.19,5.20,5.21,5.21,5.20,5.20,5.22,5.21,5.21,5.21,5.21,5.21,5.20,5.19,5.19,5.21,5.20,5.19,5.19,5.19,5.18,5.16,5.16,5.17,5.16,5.14,5.13,5.14,5.14,5.13,5.11,5.12,5.12,5.11,5.10,5.10,5.10,5.08,5.07,5.08,5.09,5.08,5.05,5.06,5.07,5.06,5.04,5.04,5.05,5.05,5.04,5.03,5.04,5.05,5.03,5.02,5.02,5.03,5.02,5.01,5.02,5.03,5.02,5.01,5.01,5.02,5.02,5.00,5.00,5.02,5.01,5.00,5.00,5.01,5.01,5.01,5.00,5.01,5.02,5.00,5.00,5.02,5.02,5.02,5.01,5.02,5.04,5.06,5.16,5.50,5.99,6.03,5.68,5.49,5.42,5.33,5.21,5.06,4.89
4.65,4.35,4.03,3.77,3.55,3.33,3.12,2.86,2.63,2.46,2.42,2.22,2.13,2.07,2.03,2.02,2.02,2.00,1.99,2.00,2.03,2.05,2.10,2.20,2.34,2.53,2.74,3.03,3.36,3.70,4.02,4.34,4.63,4.88,5.11,5.17,5.52,5.67,5.76,5.82,5.89,5.95,5.98,6.01,6.04,6.09,6.11,6.13,6.16,6.20,6.21,6.23,6.26,6.32,6.33,6.36,6.38,6.42,6.45,6.49,6.50,6.57,6.62,6.65,6.69,6.74,6.79,6.83,6.83,6.87,6.89,6.90,6.91,6.92,6.94,6.93,6.91,6.88,6.87,6.84,6.79,6.75,6.71,6.65,6.60,6.58,6.49,6.41,6.33,6.24,6.18,6.10,6.02,5.93,5.86,5.80,5.74,5.66,5.60,5.56,5.51,5.45,5.41,5.38,5.35,5.31,5.29,5.27,5.26,5.24,5.23,5.22,5.21,5.21,5.19,5.19,5.19,5.20,5.18,5.18,5.20,5.19,5.19,5.19,5.21,5.21,5.19,5.19,5.20,5.21,5.20,5.20,5.21,5.21,5.20,5.20,5.21,5.21,5.21,5.20,5.20,5.20,5.19,5.17,5.18,5.18,5.18,5.17,5.16,5.17,5.15,5.14,5.13,5.13,5.13,5.12,5.12,5.12,5.12,5.11,5.10,5.10,5.10,5.10,5.08,5.08,5.09,5.08,5.07,5.07,5.08,5.07,5.05,5.05,5.07,5.06,5.04,5.03,5.06,5.05,5.05,5.03,5.05,5.05,5.04,5.04,5.04,5.04,5.04,5.03,5.03,5.04,5.04,5.03,5.02,5.04,5.03,5.02,5.03,5.04,5.04,5.02,5.02,5.04,5.04,5.03,5.06,5.12,5.33,5.85
6.03,5.80,5.55,5.49,5.42,5.38,5.33,5.21,5.01,4.74,4.41,4.05,3.66,3.28,3.00,2.75,2.56,2.41,2.27,2.15,2.08,2.05,2.03,2.02,2.00,1.98,2.02,2.03,2.03,2.08,2.18,2.32,2.49,2.71,2.99,3.33,3.66,3.98,4.32,4.63,4.90,5.13,5.34,5.56,5.73,5.82,5.90,5.97,6.01,6.05,6.06,6.14,6.18,6.21,6.23,6.28,6.31,6.34,6.37,6.41,6.45,6.49,6.52,6.55,6.62,6.65,6.68,6.72,6.77,6.81,6.84,6.88,6.95,6.99,7.02,7.03,7.09,7.11,7.12,7.11,7.10,7.10,7.07,7.04,7.00,6.95,6.90,6.81,6.74,6.67,6.58,6.50,6.41,6.35,6.26,6.16,6.06,5.98,5.90,5.81,5.77,5.67,5.63,5.56,5.51,5.47,5.44,5.39,5.34,5.32,5.32,5.29,5.27,5.25,5.24,5.24,5.20,5.21,5.21,5.21,5.20,5.19,5.20,5.21,5.19,5.19,5.19,5.21,5.21,5.19,5.20,5.21,5.23,5.20,5.22,5.22,5.21,5.20,5.20,5.21,5.21,5.19,5.20,5.21,5.20,5.19,5.18,5.18,5.18,5.15,5.14,5.15,5.15,5.14,5.13,5.13,5.12,5.11,5.10,5.10,5.10,5.09,5.07,5.07,5.09,5.07,5.06,5.06,5.07,5.07,5.05,5.05,5.06,5.05,5.05,5.04,5.05,5.05,5.05,5.04,5.04,5.05,5.03,5.02,5.02,5.03,5.02,5.01,5.02,5.04,5.03,5.02,5.01,5.03,5.04,5.03,5.01,5.02,5.03,5.02,5.02,5.02,5.04,5.05,5.04,5.10,5.30,5.81,6.11,5.78
5.49,5.39,5.29,5.17,5.00,4.74,4.43,4.08,3.77,3.50,3.25,2.95,2.67,2.46,2.32,2.27,2.10,2.06,2.02,2.00,2.01,2.01,2.01,2.01,2.06,2.14,2.27,2.43,2.68,3.00,3.36,3.73,4.10,4.42,4.73,5.00,5.26,5.50,5.67,5.79,5.82,5.93,5.99,6.03,6.06,6.11,6.15,6.18,6.20,6.24,6.28,6.32,6.34,6.38,6.42,6.46,6.48,6.52,6.58,6.62,6.65,6.69,6.74,6.78,6.81,6.82,6.88,6.93,6.96,6.97,7.00,7.02,7.03,7.02,7.01,7.01,6.98,6.94,6.89,6.85,6.77,6.70,6.61,6.54,6.45,6.35,6.25,6.17,6.07,5.97,5.93,5.81,5.73,5.66,5.58,5.53,5.48,5.45,5.38,5.35,5.32,5.30,5.27,5.26,5.26,5.24,5.21,5.21,5.22,5.21,5.20,5.18,5.19,5.20,5.20,5.18,5.20,5.21,5.20,5.18,5.20,5.20,5.20,5.19,5.20,5.19,5.20,5.19,5.19,5.22,5.22,5.22,5.22,5.23,5.23,5.21,5.20,5.21,5.21,5.20,5.18,5.16,5.16,5.12,5.09,5.09,5.08,5.07,5.05,5.03,5.04,5.05,5.05,5.05,5.05,5.04,5.02,5.03,5.03,5.03,5.02,5.02,5.03,5.03,5.02,5.01,5.03,5.03,5.01,4.99,5.00,5.02,5.01,5.01,5.01,5.02,5.01,5.00,5.00,5.02,5.02,5.01,5.00,5.01,5.02,5.01,5.01,5.01,5.02,5.02,5.02,5.03,5.04,5.04,5.06,5.15,5.47,5.94,5.92,5.60,5.48,5.43,5.35,5.28,5.18,4.96,4.65,4.29,3.92,3.53
3.14,2.87,2.69,2.55,2.47,2.44,2.26,2.18,2.13,2.09,2.06,2.06,2.05,2.04,2.06,2.10,2.15,2.24,2.38,2.56,2.76,2.97,3.25,3.58,3.89,4.19,4.48,4.78,5.03,5.23,5.29,5.63,5.77,5.85,5.91,5.97,6.02,6.07,6.11,6.16,6.22,6.26,6.30,6.35,6.42,6.46,6.49,6.55,6.60,6.67,6.70,6.76,6.81,6.85,6.90,6.91,6.99,7.03,7.07,7.09,7.12,7.15,7.16,7.15,7.15,7.13,7.10,7.06,7.02,6.98,6.91,6.84,6.77,6.69,6.60,6.51,6.41,6.33,6.25,6.14,6.11,5.98,5.90,5.82,5.74,5.68,5.64,5.58,5.53,5.50,5.46,5.41,5.37,5.34,5.34,5.30,5.27,5.25,5.26,5.25,5.22,5.21,5.22,5.21,5.19,5.18,5.18,5.19,5.18,5.17,5.17,5.17,5.18,5.16,5.17,5.18,5.18,5.17,5.17,5.18,5.19,5.17,5.17,5.18,5.18,5.18,5.18,5.19,5.18,5.17,5.16,5.17,5.17,5.16,5.14,5.15,5.15,5.14,5.13,5.13,5.14,5.12,5.11,5.10,5.12,5.11,5.09,5.09,5.11,5.11,5.09,5.09,5.11,5.12,5.11,5.10,5.12,5.13,5.12,5.11,5.12,5.13,5.12,5.09,5.09,5.09,5.07,5.04,5.03,5.02,5.02,5.01,4.99,5.01,5.03,5.04,5.03,5.04,5.04,5.06,5.05,5.07,5.10,5.24,5.65,5.97,5.74,5.50,5.46,5.43,5.41,5.34,5.20,5.00,4.74,4.44,4.13,3.82,3.57,3.37,3.21,3.07,2.90,2.71,2.53,2.47,2.36,2.31,2.24,2.18
2.17,2.15,2.13,2.13,2.18,2.27,2.40,2.56,2.75,2.99,3.28,3.57,3.90,4.22,4.52,4.80,5.05,5.27,5.45,5.62,5.66,5.86,5.93,5.99,6.04,6.10,6.15,6.18,6.22,6.27,6.31,6.35,6.38,6.43,6.49,6.54,6.58,6.64,6.70,6.75,6.80,6.85,6.91,6.96,6.99,7.00,7.07,7.12,7.11,7.14,7.16,7.17,7.16,7.13,7.12,7.09,7.05,6.98,6.92,6.86,6.77,6.68,6.60,6.52,6.43,6.32,6.22,6.14,6.06,5.96,5.93,5.81,5.74,5.68,5.61,5.56,5.52,5.47,5.42,5.39,5.38,5.34,5.31,5.29,5.29,5.27,5.24,5.23,5.24,5.22,5.20,5.20,5.20,5.19,5.19,5.18,5.18,5.18,5.19,5.17,5.18,5.19,5.18,5.17,5.17,5.19,5.18,5.17,5.18,5.20,5.20,5.19,5.19,5.20,5.19,5.19,5.19,5.19,5.19,5.19,5.18,5.19,5.20,5.19,5.17,5.16,5.17,5.15,5.13,5.14,5.15,5.14,5.11,5.11,5.13,5.12,5.10,5.10,5.11,5.10,5.09,5.08,5.10,5.10,5.09,5.07,5.08,5.09,5.07,5.06,5.07,5.07,5.06,5.05,5.05,5.07,5.06,5.04,5.04,5.06,5.05,5.03,5.04,5.05,5.05,5.05,5.03,5.05,5.05,5.04,5.03,5.06,5.06,5.06,5.05,5.09,5.21,5.57,5.97,5.85,5.59,5.50,5.44,5.40,5.37,5.26,5.08,4.80,4.47,4.10,3.72,3.35,3.07,2.84,2.64,2.59,2.38,2.26,2.17,2.11,2.09,2.09,2.07,2.05,2.05,2.07,2.07,2.09,2.14,2.23
